Time (s)	Motor Command (V)	Desired Position  (V)	Actual Position (V)
0.003	2.000	2.100	1.966
0.054	2.000	2.100	1.967
0.104	2.000	2.100	1.969
0.153	2.000	2.100	1.968
0.204	2.000	2.100	1.968
0.254	2.000	2.100	1.970
0.303	2.000	2.100	1.969
0.354	2.000	2.100	1.969
0.404	2.000	2.100	1.969
0.453	2.000	2.100	1.968
0.503	2.000	2.100	1.969
0.553	2.000	2.100	1.967
0.602	2.000	2.100	1.969
0.652	2.000	2.100	1.968
0.701	2.000	2.100	1.968
0.751	2.000	2.100	1.965
0.800	2.000	2.100	1.968
0.850	2.000	2.100	1.968
0.901	2.000	2.100	1.969
0.951	2.000	2.100	1.968
1.001	2.000	2.100	1.966
1.051	2.000	2.100	1.969
1.101	2.000	2.100	1.967
1.151	2.000	2.100	1.968
1.201	2.000	2.100	1.969
1.251	2.000	2.100	1.970
1.300	2.000	2.100	1.967
1.351	2.000	2.126	1.949
1.402	2.000	2.127	1.968
1.452	2.000	2.127	1.969
1.502	2.000	2.128	1.966
1.552	2.000	2.129	1.968
1.601	2.000	2.130	1.967
1.651	2.000	2.131	1.968
1.701	2.000	2.131	1.969
1.750	2.000	2.132	1.968
1.800	2.000	2.133	1.969
1.850	2.000	2.134	1.969
1.900	2.000	2.134	1.967
1.950	2.000	2.135	1.959
2.000	2.000	2.136	1.969
2.049	2.000	2.137	1.969
2.100	2.000	2.137	1.967
2.150	2.000	2.138	1.970
2.199	2.000	2.139	1.969
2.250	2.000	2.139	1.970
2.299	2.000	2.140	1.970
2.349	2.000	2.140	1.968
2.400	2.000	2.141	1.967
2.450	2.000	2.142	1.970
2.499	2.000	2.142	1.969
2.550	2.000	2.143	1.969
2.600	2.000	2.143	1.969
2.649	2.000	2.144	1.970
2.699	2.000	2.144	1.967
2.749	2.000	2.145	1.968
2.798	2.000	2.145	1.966
2.848	2.000	2.145	1.963
2.897	2.000	2.146	1.967
2.948	2.000	2.146	1.964
2.997	2.000	2.147	1.961
3.047	2.000	2.147	1.964
3.097	2.000	2.147	1.963
3.147	2.000	2.148	1.958
3.197	2.000	2.148	1.965
3.248	2.000	2.148	1.967
3.298	2.000	2.148	1.962
3.347	2.000	2.149	1.965
3.398	2.000	2.149	1.965
3.447	2.000	2.149	1.970
3.496	2.000	2.149	1.968
3.546	2.000	2.149	1.969
3.595	2.000	2.150	1.966
3.646	2.000	2.150	1.969
3.696	2.000	2.150	1.969
3.745	2.000	2.150	1.967
3.795	2.000	2.150	1.967
3.845	2.000	2.150	1.969
3.894	2.000	2.150	1.970
3.945	2.000	2.150	1.970
3.994	2.000	2.150	1.969
4.044	2.000	2.150	1.969
4.094	2.000	2.150	1.968
4.144	2.000	2.150	1.970
4.194	2.000	2.150	1.969
4.244	2.000	2.150	1.968
4.294	2.000	2.149	1.969
4.344	2.000	2.149	1.968
4.394	2.000	2.149	1.968
4.444	2.000	2.149	1.969
4.494	2.000	2.149	1.968
4.544	2.100	2.148	1.968
4.595	2.100	2.148	1.964
4.644	2.100	2.148	1.967
4.694	2.100	2.148	1.968
4.745	2.100	2.147	1.968
4.794	2.100	2.147	1.969
4.844	2.100	2.147	1.968
4.894	2.100	2.146	1.969
4.944	2.200	2.146	1.967
4.994	2.200	2.146	1.965
5.044	2.200	2.145	1.969
5.094	2.200	2.145	1.967
5.144	2.200	2.144	1.968
5.194	2.200	2.144	1.969
5.244	2.200	2.143	1.967
5.293	2.300	2.143	1.967
5.343	2.300	2.142	1.968
5.393	2.300	2.142	1.967
5.443	2.300	2.141	1.968
5.494	2.300	2.140	1.969
5.543	2.300	2.140	1.968
5.593	2.300	2.139	1.968
5.643	2.300	2.139	1.968
5.692	2.300	2.138	1.968
5.743	2.300	2.137	1.969
5.793	2.300	2.137	1.969
5.842	2.300	2.136	1.968
5.893	2.300	2.135	1.967
5.943	2.400	2.135	1.968
5.993	2.400	2.134	1.967
6.043	2.400	2.133	1.968
6.093	2.400	2.132	1.968
6.143	2.400	2.132	1.966
6.192	2.400	2.131	1.969
6.242	2.400	2.130	1.968
6.291	2.400	2.129	1.969
6.342	2.400	2.128	1.969
6.392	2.500	2.128	1.968
6.442	2.500	2.127	1.955
6.492	2.500	2.126	1.969
6.543	2.500	2.125	1.969
6.592	2.500	2.124	1.968
6.642	2.500	2.123	1.967
6.693	2.600	2.122	1.968
6.742	2.600	2.122	1.968
6.792	2.600	2.121	1.967
6.843	2.600	2.120	1.968
6.892	2.600	2.119	1.970
6.942	2.700	2.118	1.969
6.992	2.700	2.117	1.969
7.042	2.700	2.116	1.970
7.092	2.700	2.115	1.960
7.142	2.800	2.114	1.961
7.192	2.800	2.113	1.969
7.242	2.800	2.112	1.968
7.292	2.800	2.111	1.967
7.341	2.900	2.110	1.969
7.391	2.900	2.109	1.964
7.440	2.900	2.108	1.968
7.490	2.900	2.107	1.970
7.541	2.900	2.106	1.969
7.591	2.900	2.105	1.965
7.640	2.900	2.104	1.968
7.691	2.900	2.103	1.970
7.740	2.900	2.102	1.970
7.790	2.900	2.101	1.968
7.841	2.900	2.100	1.969
7.891	2.900	2.099	1.970
7.941	2.900	2.100	1.967
7.991	2.900	2.100	1.970
8.041	2.900	2.100	1.970
8.090	2.900	2.100	1.971
8.140	2.900	2.100	1.971
8.190	2.900	2.100	1.964
8.240	2.900	2.100	1.969
8.290	2.900	2.100	1.970
8.340	2.900	2.100	1.969
8.390	2.900	2.100	1.966
8.441	2.900	2.100	1.968
8.491	2.900	2.100	1.970
8.540	2.900	2.100	1.968
8.590	2.900	2.100	1.971
8.640	2.900	2.100	1.967
8.689	3.000	2.100	1.968
8.740	3.000	2.100	1.969
8.789	3.000	2.100	1.970
8.839	3.000	2.100	1.969
8.890	3.000	2.100	1.969
8.940	3.100	2.100	1.971
8.989	3.100	2.100	1.970
9.040	3.100	2.100	1.970
9.090	3.100	2.100	1.972
9.139	3.200	2.100	1.973
9.189	3.200	2.100	1.970
9.239	3.200	2.100	1.969
9.289	3.200	2.100	1.970
9.339	3.300	2.100	1.969
9.389	3.300	2.100	1.971
9.439	3.300	2.100	1.970
9.489	3.300	2.100	1.971
9.539	3.300	2.100	1.970
9.589	3.300	2.100	1.968
9.639	3.300	2.100	1.971
9.690	3.300	2.100	1.969
9.739	3.300	2.100	1.969
9.789	3.300	2.100	1.971
9.840	3.400	2.100	1.970
9.890	3.500	2.100	1.971
9.940	3.700	2.100	1.966
9.990	3.800	2.100	1.969
10.040	4.000	2.100	1.969
10.090	4.000	2.100	1.969
10.140	4.000	2.100	1.971
10.190	4.000	2.100	1.969
10.240	4.000	2.100	1.967
10.290	4.000	2.100	1.968
10.340	4.000	2.100	1.969
10.390	4.000	2.100	1.967
10.440	4.000	2.100	1.970
10.491	4.100	2.100	1.967
10.540	4.100	2.100	1.969
10.590	4.100	2.100	1.969
10.641	4.100	2.100	1.970
10.690	4.200	2.100	1.968
10.740	4.200	2.100	1.968
10.791	4.200	2.100	1.968
10.841	4.200	2.100	1.968
10.890	4.200	2.100	1.967
10.940	4.200	2.100	1.971
10.989	4.200	2.100	1.968
11.040	4.200	2.100	1.971
11.090	4.200	2.100	1.970
11.140	4.200	2.100	1.972
11.190	4.200	2.100	1.969
11.241	4.200	2.100	1.970
11.290	4.200	2.100	1.970
11.340	4.200	2.100	1.967
11.391	4.200	2.100	1.968
11.441	4.200	2.100	1.971
11.490	4.300	2.100	1.969
11.541	4.300	2.100	1.969
11.590	4.300	2.100	1.970
11.640	4.300	2.100	1.968
11.691	4.300	2.100	1.969
11.741	4.300	2.100	1.970
11.790	4.300	2.100	1.968
11.841	4.400	2.100	1.969
11.891	4.400	2.100	1.969
11.941	4.400	2.100	1.969
11.990	4.500	2.100	1.967
12.040	4.500	2.100	1.966
12.090	4.500	2.100	1.966
12.140	4.600	2.100	1.966
12.190	4.600	2.100	1.964
12.240	4.600	2.100	1.966
12.290	4.700	2.100	1.970
12.341	4.700	2.100	1.963
12.390	4.700	2.100	1.967
12.440	4.700	2.100	1.963
12.490	4.800	2.100	1.969
12.539	4.800	2.100	1.965
12.590	4.800	2.100	1.960
12.640	4.900	2.100	1.968
12.689	4.900	2.100	1.968
12.740	4.900	2.100	1.960
12.790	5.000	2.100	1.968
12.839	5.000	2.100	1.969
12.890	5.000	2.100	1.967
12.940	5.100	2.100	1.966
12.990	5.100	2.100	1.961
13.040	5.100	2.100	1.961
13.091	5.100	2.100	1.955
13.141	5.200	2.100	1.962
13.190	5.200	2.100	1.959
13.241	5.200	2.100	1.970
13.290	5.300	2.100	1.966
13.340	5.300	2.100	1.964
13.391	5.300	2.100	1.962
13.441	5.300	2.100	1.967
13.490	5.300	2.100	1.965
13.541	5.300	2.100	1.961
13.591	5.300	2.100	1.968
13.640	5.300	2.100	1.966
13.691	5.300	2.100	1.965
13.741	5.300	2.100	1.968
13.790	5.500	2.100	1.970
13.840	5.600	2.100	1.970
13.890	5.700	2.100	1.968
13.940	5.800	2.100	1.966
13.990	5.800	2.100	1.968
14.040	5.800	2.100	1.968
14.089	5.800	2.100	1.968
14.139	5.800	2.100	1.972
14.188	5.800	2.100	1.959
14.238	5.900	2.100	1.967
14.288	5.900	2.100	1.968
14.338	5.900	2.100	1.966
14.388	5.900	2.100	1.968
14.438	5.900	2.100	1.968
14.487	5.900	2.100	1.964
14.538	5.900	2.100	1.966
14.587	5.900	2.100	1.955
14.636	5.900	2.100	1.967
14.687	5.900	2.100	1.967
14.736	6.000	2.100	1.968
14.786	6.100	2.100	1.967
14.836	6.300	2.100	1.967
14.885	6.400	2.100	1.966
14.936	6.500	2.100	1.967
14.986	6.500	2.100	1.969
15.036	6.500	2.100	1.968
15.086	6.600	2.100	1.966
15.136	6.600	2.100	1.960
15.186	6.600	2.100	1.968
15.236	6.600	2.100	1.967
15.286	6.600	2.100	1.968
15.336	6.600	2.100	1.966
15.386	6.600	2.100	1.967
15.436	6.600	2.100	1.967
15.485	6.600	2.100	1.967
15.535	6.600	2.100	1.966
15.585	6.600	2.100	1.968
15.634	6.800	2.100	1.967
15.685	7.000	2.100	1.966
15.735	7.000	2.100	1.968
15.784	7.000	2.100	1.967
15.835	7.000	2.100	1.966
15.884	7.000	2.100	1.966
15.933	7.000	2.100	1.962
15.984	7.100	2.100	1.968
16.034	7.100	2.100	1.966
16.083	7.100	2.100	1.966
16.134	7.100	2.100	1.954
16.184	7.100	2.100	1.967
16.234	7.100	2.100	1.965
16.284	7.100	2.100	1.967
16.334	7.100	2.100	1.967
16.384	7.100	2.100	1.966
16.434	7.100	2.100	1.966
16.485	7.200	2.100	1.967
16.534	7.300	2.100	1.965
16.584	7.400	2.100	1.967
16.635	7.400	2.100	1.966
16.685	7.400	2.100	1.966
16.735	7.400	2.100	1.967
16.786	7.500	2.100	1.967
16.836	7.500	2.100	1.965
16.886	7.500	2.100	1.968
16.936	7.500	2.100	1.966
16.986	7.500	2.100	1.967
17.035	7.600	2.100	1.965
17.085	7.600	2.100	1.968
17.136	7.600	2.100	1.966
17.186	7.600	2.100	1.968
17.236	7.700	2.100	1.965
17.287	7.700	2.100	1.967
17.336	7.700	2.100	1.967
17.385	7.700	2.100	1.967
17.436	7.700	2.100	1.968
17.485	7.800	2.100	1.967
17.535	7.800	2.100	1.967
17.586	7.800	2.100	1.967
17.636	7.800	2.100	1.966
17.685	7.900	2.100	1.967
17.736	7.900	2.100	1.969
17.786	7.900	2.100	1.969
17.836	7.900	2.100	1.966
17.886	7.900	2.100	1.958
17.936	7.900	2.100	1.966
17.986	7.900	2.100	1.968
18.036	7.900	2.100	1.971
18.086	7.900	2.100	1.966
18.136	7.900	2.100	1.965
18.186	7.900	2.100	1.972
18.237	7.900	2.100	1.971
18.286	7.900	2.100	1.967
18.336	7.900	2.100	1.969
18.387	7.900	2.100	1.971
18.437	7.900	2.100	1.971
18.487	7.900	2.100	1.969
18.538	7.900	2.100	1.964
18.588	7.900	2.100	1.972
18.637	7.900	2.100	1.969
18.687	7.900	2.100	1.958
18.737	7.900	2.100	1.967
18.786	7.900	2.100	1.972
18.836	7.900	2.100	1.972
18.886	7.900	2.100	1.970
18.935	7.900	2.100	1.969
18.986	7.900	2.100	1.967
19.036	7.900	2.100	1.973
19.086	7.900	2.100	1.972
19.136	7.900	2.100	1.953
19.185	7.900	2.100	1.971
19.235	7.900	2.100	1.972
19.286	7.900	2.100	1.972
19.335	7.900	2.100	1.971
19.385	7.900	2.100	1.973
19.435	7.900	2.100	1.972
19.484	7.900	2.100	1.972
19.535	7.900	2.100	1.971
19.584	8.000	2.100	1.973
19.633	8.000	2.100	1.970
19.684	8.000	2.100	1.973
19.734	8.000	2.100	1.974
19.784	8.000	2.100	1.971
19.834	8.100	2.100	1.972
19.884	8.100	2.100	1.974
19.934	8.100	2.100	1.974
19.984	8.100	2.100	1.972
20.034	8.200	2.100	1.975
20.084	8.200	2.100	1.973
20.135	8.200	2.100	1.949
20.185	8.200	2.100	1.975
20.234	8.200	2.100	1.973
20.284	8.200	2.100	1.976
20.335	8.200	2.100	1.977
20.384	8.200	2.100	1.975
20.434	8.200	2.100	1.976
20.485	8.200	2.100	1.976
20.535	8.200	2.100	1.977
20.584	8.200	2.100	1.976
20.635	8.200	2.100	1.977
20.685	8.200	2.100	1.977
20.734	8.200	2.100	1.977
20.784	8.200	2.100	1.979
20.834	8.200	2.100	1.979
20.884	8.200	2.100	1.981
20.934	8.200	2.100	1.980
20.984	8.200	2.100	1.982
21.034	8.200	2.100	1.983
21.085	8.200	2.100	1.983
21.134	8.200	2.100	1.957
21.184	8.200	2.100	1.981
21.235	8.200	2.100	1.985
21.284	8.200	2.100	1.983
21.333	8.200	2.100	1.974
21.384	8.200	2.100	1.982
21.433	8.300	2.100	1.982
21.483	8.300	2.100	1.984
21.534	8.300	2.100	1.982
21.583	8.300	2.100	1.973
21.633	8.400	2.100	1.972
21.683	8.400	2.100	1.979
21.733	8.400	2.100	1.981
21.783	8.400	2.100	1.982
21.834	8.400	2.100	1.985
21.884	8.400	2.100	1.985
21.934	8.400	2.100	1.984
21.984	8.400	2.100	1.986
22.035	8.400	2.100	1.984
22.084	8.400	2.100	1.983
22.134	8.400	2.100	1.959
22.185	8.400	2.100	1.985
22.235	8.400	2.100	1.984
22.284	8.400	2.100	1.985
22.335	8.400	2.100	1.985
22.385	8.500	2.100	1.987
22.435	8.500	2.100	1.985
22.485	8.500	2.100	1.987
22.535	8.600	2.100	1.987
22.585	8.600	2.100	1.987
22.635	8.600	2.100	1.986
22.685	8.600	2.100	1.987
22.735	8.600	2.100	1.987
22.785	8.600	2.100	1.980
22.834	8.600	2.100	1.986
22.884	8.600	2.100	1.978
22.934	8.600	2.100	1.984
22.984	8.600	2.100	1.976
23.034	8.600	2.100	1.986
23.085	8.600	2.100	1.989
23.135	8.600	2.100	1.963
23.184	8.600	2.100	1.987
23.235	8.600	2.100	1.990
23.284	8.600	2.100	1.994
23.333	8.600	2.100	1.996
23.384	8.600	2.100	1.992
23.434	8.600	2.100	1.988
23.484	8.600	2.100	1.988
23.534	8.600	2.100	1.997
23.584	8.600	2.100	1.997
23.633	8.600	2.100	1.999
23.683	8.600	2.100	1.999
23.732	8.600	2.100	2.000
23.782	8.600	2.100	2.000
23.832	8.600	2.100	2.000
23.882	8.600	2.100	2.002
23.932	8.600	2.100	2.001
23.982	8.600	2.100	2.002
24.032	8.600	2.100	2.003
24.082	8.600	2.100	2.002
24.133	8.600	2.100	2.004
24.182	8.600	2.100	2.002
24.232	8.600	2.100	2.003
24.283	8.600	2.100	2.003
24.332	8.600	2.100	2.003
24.382	8.600	2.100	2.003
24.432	8.600	2.100	2.003
24.482	8.600	2.100	2.003
24.532	8.600	2.100	2.002
24.582	8.600	2.100	2.003
24.631	8.600	2.100	2.003
24.682	8.600	2.100	1.997
24.732	8.600	2.100	2.004
24.782	8.600	2.100	2.003
24.831	8.600	2.100	2.003
24.881	8.600	2.100	2.003
24.931	8.600	2.100	2.003
24.981	8.600	2.100	2.003
25.030	8.600	2.100	2.003
25.079	8.600	2.100	1.989
25.129	8.600	2.100	2.004
25.179	8.600	2.100	2.002
25.229	8.600	2.100	2.004
25.280	8.600	2.100	2.004
25.329	8.600	2.100	2.003
25.379	8.600	2.100	2.004
25.429	8.600	2.100	2.005
25.478	8.600	2.100	2.003
25.529	8.600	2.100	2.004
25.579	8.600	2.100	2.004
25.628	8.600	2.100	2.004
25.679	8.600	2.100	2.003
25.729	8.600	2.100	2.006
25.779	8.600	2.100	2.005
25.829	8.600	2.100	2.003
25.879	8.600	2.100	2.005
25.929	8.600	2.100	2.004
25.979	8.600	2.100	2.006
26.030	8.600	2.100	2.005
26.079	8.600	2.100	2.002
26.129	8.600	2.100	2.003
26.180	8.600	2.100	2.006
26.229	8.600	2.100	2.003
26.278	8.600	2.100	2.004
26.328	8.600	2.100	2.006
26.377	8.600	2.100	2.004
26.428	8.600	2.100	2.007
26.477	8.600	2.100	2.007
26.527	8.600	2.100	2.005
26.578	8.600	2.100	2.005
26.628	8.600	2.100	2.007
26.677	8.600	2.100	2.005
26.728	8.600	2.100	2.004
26.778	8.600	2.100	2.006
26.827	8.600	2.100	2.004
26.878	8.600	2.100	2.007
26.928	8.600	2.100	2.007
26.977	8.600	2.100	2.008
27.027	8.600	2.100	2.008
27.077	8.600	2.100	2.007
27.127	8.600	2.100	2.007
27.177	8.600	2.100	2.007
27.227	8.600	2.100	2.009
27.277	8.600	2.100	2.008
27.327	8.600	2.100	2.007
27.377	8.600	2.100	2.006
27.426	8.600	2.100	2.006
27.477	8.600	2.100	2.006
27.526	8.600	2.100	2.008
27.576	8.600	2.100	2.009
27.627	8.600	2.100	2.008
27.676	8.600	2.100	2.008
27.725	8.600	2.100	2.006
27.776	8.600	2.100	2.010
27.826	8.600	2.100	2.010
27.876	8.600	2.100	2.009
27.926	8.600	2.100	2.010
27.976	8.600	2.100	2.010
28.026	8.600	2.100	2.011
28.076	8.600	2.100	2.010
28.126	8.600	2.100	2.010
28.176	8.600	2.100	2.009
28.226	8.600	2.100	2.011
28.276	8.600	2.100	2.011
28.326	8.600	2.100	2.011
28.376	8.600	2.100	2.012
28.425	8.600	2.100	2.010
28.474	8.600	2.100	2.012
28.524	8.600	2.100	2.006
28.573	8.600	2.100	2.003
28.623	8.600	2.100	2.010
28.672	8.600	2.100	2.010
28.722	8.600	2.100	2.009
28.771	8.600	2.100	2.008
28.820	8.600	2.100	2.008
28.871	8.600	2.100	2.010
28.920	8.600	2.100	2.009
28.970	8.600	2.100	2.008
29.021	8.600	2.100	2.010
29.070	8.600	2.100	2.004
29.120	8.600	2.100	2.009
29.170	8.600	2.100	2.010
29.220	8.600	2.100	2.008
29.270	8.600	2.100	2.010
29.321	8.600	2.100	2.009
29.371	8.600	2.100	2.010
29.421	8.600	2.100	2.010
29.471	8.600	2.100	1.998
29.520	8.600	2.100	2.010
29.570	8.600	2.100	2.007
29.621	8.600	2.100	2.012
29.670	8.500	2.100	2.010
29.720	8.500	2.100	2.010
29.771	8.500	2.100	2.011
29.821	8.500	2.100	2.009
29.870	8.500	2.100	2.000
29.921	8.500	2.100	2.009
29.971	8.500	2.100	2.010
30.020	8.500	2.100	2.008
30.071	8.500	2.100	2.009
30.121	8.500	2.100	2.012
30.170	8.500	2.100	2.008
30.221	8.500	2.100	2.009
30.271	8.400	2.100	2.011
30.321	8.400	2.100	2.009
30.371	8.400	2.100	2.006
30.422	8.400	2.100	2.010
30.471	8.400	2.100	2.010
30.521	8.400	2.100	2.008
30.572	8.400	2.100	2.010
30.621	8.400	2.100	2.011
30.671	8.400	2.100	2.008
30.722	8.400	2.100	2.010
30.772	8.400	2.100	2.012
30.821	8.400	2.100	2.009
30.872	8.400	2.100	2.010
30.922	8.400	2.100	2.012
30.972	8.400	2.100	2.010
31.022	8.400	2.100	2.010
31.072	8.400	2.100	2.011
31.122	8.400	2.100	2.008
31.172	8.400	2.100	2.010
31.222	8.400	2.100	2.010
31.272	8.400	2.100	2.010
31.321	8.400	2.100	2.010
31.371	8.400	2.100	2.010
31.420	8.400	2.100	2.010
31.470	8.400	2.100	2.006
31.520	8.400	2.100	2.010
31.570	8.400	2.100	2.009
31.621	8.400	2.100	2.011
31.671	8.400	2.100	2.010
31.720	8.400	2.100	2.010
31.771	8.400	2.100	2.012
31.820	8.400	2.100	2.009
31.869	8.400	2.100	2.008
31.920	8.400	2.100	2.011
31.969	8.400	2.100	2.009
32.019	8.400	2.100	2.007
32.070	8.400	2.100	2.009
32.120	8.500	2.100	2.010
32.170	8.500	2.100	2.012
32.220	8.500	2.100	2.011
32.270	8.500	2.100	2.012
32.319	8.500	2.100	2.012
32.369	8.500	2.100	2.013
32.418	8.500	2.100	2.010
32.468	8.500	2.100	2.012
32.518	8.500	2.100	2.011
32.567	8.500	2.100	2.012
32.617	8.500	2.100	2.011
32.667	8.500	2.100	2.011
32.717	8.500	2.100	2.010
32.767	8.600	2.100	2.011
32.817	8.600	2.100	2.012
32.867	8.600	2.100	2.011
32.918	8.600	2.100	2.012
32.967	8.600	2.100	2.012
33.017	8.600	2.100	2.010
33.068	8.600	2.100	2.011
33.117	8.600	2.100	2.012
33.166	8.600	2.100	2.013
33.217	8.600	2.100	2.012
33.267	8.600	2.100	2.012
33.316	8.600	2.100	2.009
33.367	8.600	2.100	2.010
33.417	8.700	2.100	2.013
33.467	8.700	2.100	2.012
33.517	8.700	2.100	2.013
33.568	8.700	2.100	2.013
33.617	8.700	2.100	2.012
33.668	8.700	2.100	2.015
33.719	8.700	2.100	2.015
33.768	8.700	2.100	2.014
33.818	8.700	2.100	2.014
33.869	8.700	2.100	2.014
33.919	8.800	2.100	2.015
33.968	8.800	2.100	2.014
34.019	8.800	2.100	2.014
34.069	8.800	2.100	2.015
34.119	8.800	2.100	2.015
34.169	8.800	2.100	2.017
34.220	8.800	2.100	2.016
34.270	8.800	2.100	2.018
34.320	8.900	2.100	2.015
34.370	8.900	2.100	2.016
34.421	8.900	2.100	2.018
34.471	8.900	2.100	2.021
34.521	8.900	2.100	2.020
34.572	8.900	2.100	2.020
34.622	8.900	2.100	2.021
34.671	8.900	2.100	2.019
34.721	8.900	2.100	2.024
34.770	8.900	2.100	2.024
34.820	8.900	2.100	2.024
34.871	8.900	2.100	2.026
34.921	8.900	2.100	2.028
34.970	8.900	2.100	2.030
35.020	8.900	2.100	2.032
35.070	8.900	2.100	2.034
35.119	8.900	2.100	2.033
35.169	8.800	2.100	2.038
35.219	8.800	2.100	2.038
35.269	8.800	2.100	2.041
35.319	8.800	2.100	2.043
35.369	8.800	2.100	2.044
35.419	8.800	2.100	2.047
35.469	8.800	2.100	2.033
35.519	8.800	2.100	2.050
35.569	8.800	2.100	2.052
35.619	8.700	2.100	2.052
35.668	8.700	2.100	2.052
35.719	8.700	2.100	2.051
35.768	8.700	2.100	2.051
35.817	8.700	2.100	2.053
35.868	8.700	2.100	2.054
35.917	8.700	2.100	2.052
35.967	8.700	2.100	2.051
36.018	8.700	2.100	2.054
36.068	8.700	2.100	2.053
36.118	8.700	2.100	2.054
36.168	8.700	2.100	2.055
36.219	8.700	2.100	2.054
36.269	8.700	2.100	2.054
36.319	8.600	2.100	2.055
36.370	8.600	2.100	2.055
36.419	8.600	2.100	2.055
36.469	8.600	2.100	2.054
36.519	8.600	2.100	2.056
36.568	8.600	2.100	2.053
36.618	8.600	2.100	2.050
36.669	8.600	2.100	2.055
36.718	8.600	2.100	2.052
36.768	8.600	2.100	2.054
36.819	8.600	2.100	2.053
36.869	8.600	2.100	2.054
36.919	8.500	2.100	2.053
36.969	8.500	2.100	2.054
37.019	8.500	2.100	2.054
37.069	8.500	2.100	2.055
37.119	8.500	2.100	2.055
37.169	8.500	2.100	2.055
37.219	8.500	2.100	2.053
37.269	8.500	2.100	2.053
37.319	8.500	2.100	2.053
37.368	8.500	2.100	2.054
37.419	8.500	2.100	2.055
37.468	8.500	2.100	2.041
37.518	8.400	2.100	2.059
37.569	8.400	2.100	2.056
37.619	8.400	2.100	2.055
37.668	8.400	2.100	2.056
37.719	8.400	2.100	2.054
37.769	8.400	2.100	2.054
37.819	8.400	2.100	2.054
37.869	8.400	2.100	2.055
37.919	8.400	2.100	2.055
37.969	8.400	2.100	2.053
38.019	8.400	2.100	2.055
38.070	8.400	2.100	2.055
38.120	8.400	2.100	2.055
38.170	8.400	2.100	2.053
38.220	8.400	2.100	2.054
38.271	8.400	2.100	2.054
38.321	8.400	2.100	2.054
38.370	8.400	2.100	2.050
38.421	8.400	2.100	2.054
38.470	8.400	2.100	2.053
38.520	8.400	2.100	2.053
38.570	8.400	2.100	2.055
38.620	8.400	2.100	2.054
38.670	8.400	2.100	2.052
38.721	8.400	2.100	2.053
38.771	8.400	2.100	2.054
38.820	8.400	2.100	2.053
38.871	8.400	2.100	2.054
38.920	8.400	2.100	2.055
38.970	8.400	2.100	2.055
39.021	8.400	2.100	2.054
39.070	8.400	2.100	2.055
39.120	8.400	2.100	2.053
39.171	8.400	2.100	2.056
39.220	8.400	2.100	2.053
39.269	8.400	2.100	2.055
39.319	8.400	2.100	2.055
39.368	8.400	2.100	2.054
39.419	8.400	2.100	2.051
39.468	8.400	2.100	2.044
39.517	8.400	2.100	2.051
39.567	8.400	2.100	2.053
39.616	8.400	2.100	2.051
39.667	8.400	2.100	2.052
39.716	8.300	2.100	2.053
39.765	8.300	2.100	2.054
39.816	8.300	2.100	2.054
39.866	8.300	2.100	2.054
39.916	8.300	2.100	2.054
39.966	8.300	2.100	2.053
40.016	8.300	2.100	2.054
40.066	8.300	2.100	2.054
40.116	8.300	2.100	2.055
40.166	8.300	2.100	2.052
40.215	8.300	2.100	2.052
40.266	8.300	2.100	2.051
40.315	8.300	2.100	2.050
40.365	8.300	2.100	2.052
40.416	8.300	2.100	2.054
40.466	8.200	2.100	2.054
40.515	8.200	2.100	2.054
40.565	8.200	2.100	2.056
40.614	8.200	2.100	2.051
40.664	8.100	2.100	2.055
40.714	8.100	2.100	2.055
40.763	8.100	2.100	2.055
40.814	8.100	2.100	2.055
40.864	8.100	2.100	2.056
40.913	8.100	2.100	2.055
40.964	8.100	2.100	2.055
41.014	8.100	2.100	2.055
41.064	8.100	2.100	2.052
41.114	8.100	2.100	2.056
41.164	8.100	2.100	2.056
41.214	8.100	2.100	2.054
41.264	8.100	2.100	2.056
41.314	8.100	2.100	2.057
41.364	8.000	2.100	2.054
41.414	8.000	2.100	2.057
41.464	8.000	2.100	2.056
41.513	7.900	2.100	2.054
41.563	7.900	2.100	2.055
41.614	7.900	2.100	2.055
41.664	7.900	2.100	2.052
41.713	7.800	2.100	2.053
41.764	7.800	2.100	2.055
41.814	7.800	2.100	2.054
41.864	7.800	2.100	2.054
41.915	7.800	2.100	2.051
41.965	7.700	2.100	2.043
42.014	7.700	2.100	2.053
42.064	7.700	2.100	2.053
42.114	7.600	2.100	2.052
42.164	7.600	2.100	2.052
42.214	7.600	2.100	2.052
42.263	7.500	2.100	2.051
42.313	7.500	2.100	2.051
42.364	7.500	2.100	2.049
42.413	7.500	2.100	2.050
42.463	7.500	2.100	2.049
42.514	7.500	2.100	2.049
42.563	7.500	2.100	2.049
42.613	7.500	2.100	2.048
42.664	7.500	2.100	2.047
42.714	7.500	2.100	2.048
42.763	7.500	2.100	2.048
42.814	7.500	2.100	2.047
42.864	7.500	2.100	2.045
42.913	7.500	2.100	2.045
42.963	7.500	2.100	2.042
43.013	7.500	2.100	2.042
43.063	7.500	2.100	2.040
43.113	7.600	2.100	2.039
43.163	7.600	2.100	2.038
43.212	7.600	2.100	2.027
43.262	7.700	2.100	2.039
43.312	7.700	2.100	2.037
43.362	7.700	2.100	2.036
43.413	7.800	2.100	2.038
43.462	7.800	2.100	2.038
43.512	7.800	2.100	2.039
43.563	7.900	2.100	2.038
43.612	7.900	2.100	2.039
43.662	7.900	2.100	2.038
43.713	7.900	2.100	2.038
43.762	7.900	2.100	2.037
43.811	7.900	2.100	2.037
43.862	7.900	2.100	2.037
43.912	7.900	2.100	2.037
43.961	7.900	2.100	2.038
44.012	7.900	2.100	2.036
44.061	7.900	2.100	2.037
44.111	7.900	2.100	2.037
44.161	7.900	2.100	2.038
44.211	7.900	2.100	2.038
44.261	7.900	2.100	2.039
44.312	7.900	2.100	2.038
44.361	7.900	2.100	2.039
44.411	7.900	2.100	2.037
44.462	7.900	2.100	2.039
44.511	7.900	2.100	2.038
44.561	7.900	2.100	2.040
44.611	7.900	2.100	2.042
44.660	7.900	2.100	2.041
44.710	7.900	2.100	2.038
44.761	7.900	2.100	2.043
44.811	7.900	2.100	2.042
44.860	7.900	2.100	2.042
44.911	7.900	2.100	2.042
44.961	7.900	2.100	2.041
45.010	7.900	2.100	2.039
45.061	7.900	2.100	2.042
45.111	7.900	2.100	2.041
45.160	7.900	2.100	2.025
45.211	7.900	2.100	2.042
45.261	7.900	2.100	2.042
45.311	7.900	2.100	2.041
45.361	7.900	2.100	2.043
45.410	7.900	2.100	2.042
45.460	7.900	2.100	2.040
45.511	7.900	2.100	2.038
45.560	7.900	2.100	2.043
45.610	7.900	2.100	2.041
45.661	7.900	2.100	2.042
45.710	7.900	2.100	2.035
45.760	7.900	2.100	2.041
45.811	7.900	2.100	2.038
45.861	7.900	2.100	2.043
45.910	7.900	2.100	2.040
45.961	7.900	2.100	2.040
46.011	7.900	2.100	2.042
46.060	7.900	2.100	2.040
46.110	7.900	2.100	2.033
46.160	7.900	2.100	2.044
46.210	7.900	2.100	2.041
46.260	7.900	2.100	2.044
46.310	7.900	2.100	2.037
46.360	7.900	2.100	2.041
46.410	7.900	2.100	2.044
46.460	7.900	2.100	2.044
46.509	7.900	2.100	2.043
46.560	7.900	2.100	2.044
46.610	7.900	2.100	2.045
46.659	7.900	2.100	2.043
46.710	7.900	2.100	2.039
46.760	7.900	2.100	2.044
46.809	7.900	2.100	2.044
46.860	7.900	2.100	2.043
46.910	7.900	2.100	2.044
46.959	7.900	2.100	2.042
47.010	7.900	2.100	2.042
47.060	7.900	2.100	2.043
47.109	7.900	2.100	2.033
47.159	7.900	2.100	2.041
47.209	7.900	2.100	2.040
47.259	7.900	2.100	2.041
47.309	7.900	2.100	2.043
47.360	7.900	2.100	2.035
47.409	7.900	2.100	2.039
47.459	7.900	2.100	2.043
47.510	7.900	2.100	2.043
47.560	7.900	2.100	2.039
47.609	7.900	2.100	2.038
47.660	7.900	2.100	2.043
47.710	7.900	2.100	2.034
47.759	7.900	2.100	2.038
47.810	7.900	2.100	2.040
47.860	7.900	2.100	2.035
47.909	7.900	2.100	2.041
47.959	7.900	2.100	2.041
48.008	7.900	2.100	2.042
48.058	7.900	2.100	2.041
48.108	7.900	2.100	2.041
48.157	7.900	2.100	2.042
48.207	7.900	2.100	2.043
48.257	7.900	2.100	2.041
48.307	7.900	2.100	2.042
48.358	7.900	2.100	2.043
48.407	7.900	2.100	2.043
48.457	7.900	2.100	2.041
48.508	7.900	2.100	2.040
48.558	7.900	2.100	2.043
48.607	7.900	2.100	2.042
48.658	7.900	2.100	2.040
48.708	7.900	2.100	2.042
48.757	7.900	2.100	2.040
48.808	7.900	2.100	2.041
48.858	7.900	2.100	2.044
48.907	7.900	2.100	2.038
48.958	7.900	2.100	2.036
49.008	7.900	2.100	2.040
49.058	7.900	2.100	2.039
49.108	7.900	2.100	2.040
49.158	7.900	2.100	2.041
49.207	7.900	2.100	2.040
49.257	7.900	2.100	2.041
49.307	7.900	2.100	2.041
49.357	7.900	2.100	2.041
49.407	7.900	2.100	2.040
49.458	7.900	2.100	2.042
49.507	7.900	2.100	2.041
49.558	7.900	2.100	2.040
49.608	7.900	2.100	2.041
49.658	7.900	2.100	2.039
49.707	7.900	2.100	2.041
49.758	7.900	2.100	2.045
49.808	7.900	2.100	2.041
49.857	7.900	2.100	2.035
49.908	7.900	2.100	2.042
49.958	7.900	2.100	2.041
50.008	7.900	2.100	2.040
50.058	7.900	2.100	2.042
50.108	7.900	2.100	2.042
50.157	7.900	2.100	2.038
50.208	7.900	2.100	2.040
50.258	7.900	2.100	2.040
50.308	7.900	2.100	2.037
50.358	7.900	2.100	2.038
50.408	7.900	2.100	2.042
50.458	7.900	2.000	2.041
50.508	7.900	2.000	2.043
50.559	7.900	2.000	2.043
50.609	7.900	2.000	2.043
50.659	7.900	1.990	2.042
50.709	7.900	1.990	2.042
50.759	7.900	1.990	2.041
50.808	7.900	1.890	2.042
50.858	7.900	1.890	2.043
50.907	7.900	1.890	2.040
50.957	7.900	1.790	2.043
51.007	7.900	1.790	2.042
51.057	7.900	1.790	2.040
51.107	7.900	1.790	2.043
51.158	7.900	1.690	2.042
51.208	7.900	1.690	2.044
51.258	7.900	1.690	2.040
51.308	7.900	1.690	2.044
51.358	7.900	1.690	2.041
51.407	7.900	1.690	2.044
51.458	7.900	1.690	2.043
51.507	7.900	1.690	2.041
51.557	7.900	1.690	2.042
51.608	7.900	1.690	2.042
51.658	7.900	1.690	2.043
51.708	7.900	1.690	2.040
51.758	7.900	1.690	2.043
51.807	7.900	1.790	2.040
51.857	7.900	1.790	2.040
51.907	7.900	1.790	2.043
51.956	7.900	1.790	2.039
52.006	7.900	1.790	2.042
52.056	7.900	1.790	2.041
52.105	7.900	1.790	2.042
52.155	7.900	1.790	2.043
52.204	7.900	1.890	2.041
52.254	7.900	1.890	2.044
52.304	7.900	1.890	2.043
52.353	7.900	1.990	2.043
52.403	7.900	1.990	2.043
52.452	7.900	1.990	2.043
52.502	7.900	1.990	2.031
52.552	7.900	2.090	2.043
52.602	7.900	2.090	2.043
52.652	7.900	2.090	2.044
52.702	7.900	2.090	2.044
52.752	7.900	2.090	2.041
52.802	7.900	2.090	2.042
52.853	7.900	2.090	2.044
52.903	7.900	2.090	2.041
52.952	7.900	2.090	2.041
53.003	7.900	2.190	2.044
53.053	7.900	2.190	2.043
53.103	7.900	2.190	2.044
53.153	7.900	2.190	2.041
53.202	7.900	2.190	2.044
53.252	7.900	2.190	2.042
53.302	7.900	2.190	2.043
53.351	7.900	2.190	2.041
53.401	7.900	2.190	2.043
53.451	7.900	2.190	2.043
53.501	7.900	2.190	2.041
53.551	7.900	2.190	2.044
53.601	7.900	2.190	2.039
53.651	7.900	2.190	2.043
53.701	7.900	2.190	2.042
53.752	7.900	2.190	2.045
53.801	7.900	2.190	2.042
53.851	7.900	2.190	2.042
53.902	7.900	2.190	2.042
53.952	7.900	2.190	2.040
54.001	7.900	2.190	2.045
54.051	7.900	2.190	2.043
54.100	7.900	2.190	2.042
54.151	7.900	2.190	2.043
54.201	7.900	2.190	2.044
54.250	7.900	2.190	2.042
54.301	7.900	2.190	2.044
54.351	7.900	2.190	2.047
54.401	7.900	2.190	2.043
54.451	7.900	2.190	2.043
54.502	7.900	2.190	2.043
54.551	7.900	2.190	2.041
54.600	7.900	2.190	2.041
54.651	7.900	2.190	2.038
54.700	7.900	2.190	2.032
54.750	7.900	2.190	2.034
54.800	7.900	2.190	2.042
54.849	7.900	2.190	2.036
54.900	7.900	2.190	2.028
54.950	7.900	2.190	2.042
54.999	7.900	2.190	2.038
55.050	7.900	2.190	2.032
55.100	7.900	2.190	2.038
55.149	7.900	2.190	2.041
55.200	7.900	2.190	2.038
55.250	7.900	2.190	2.041
55.299	7.900	2.190	2.042
55.349	7.900	2.190	2.042
55.399	7.900	2.190	2.041
55.449	7.900	2.190	2.041
55.499	7.900	2.190	2.041
55.549	7.900	2.190	2.043
55.599	7.900	2.190	2.038
55.649	7.900	2.190	2.042
55.699	7.900	2.190	2.043
55.749	7.900	2.190	2.040
55.799	7.900	2.190	2.042
55.849	7.900	2.190	2.042
55.898	7.900	2.190	2.040
55.948	7.900	2.190	2.042
55.997	7.900	2.190	2.040
56.047	7.900	2.190	2.040
56.098	7.900	2.190	2.042
56.147	7.900	2.190	2.039
56.197	7.900	2.190	2.039
56.248	7.900	2.190	2.040
56.298	7.900	2.190	2.041
56.347	7.900	2.190	2.040
56.398	7.900	2.190	2.040
56.448	7.900	2.190	2.042
56.498	7.900	2.190	2.040
56.548	7.900	2.190	2.041
56.598	7.900	2.190	2.041
56.647	7.900	2.190	2.039
56.698	7.900	2.190	2.041
56.748	7.900	2.190	2.042
56.798	7.900	2.190	2.041
56.848	7.900	2.190	2.040
56.898	7.900	2.190	2.042
56.948	7.900	2.190	2.040
56.998	7.900	2.190	2.038
57.049	7.900	2.190	2.040
57.099	7.900	2.190	2.041
57.149	7.900	2.190	2.041
57.199	7.900	2.190	2.041
57.249	7.900	2.190	2.043
57.298	7.900	2.190	2.041
57.349	7.900	2.180	2.043
57.399	7.900	2.180	2.041
57.448	7.900	2.180	2.041
57.499	7.900	2.180	2.043
57.548	7.900	2.180	2.040
57.597	7.900	2.180	2.039
57.647	7.900	2.180	2.042
57.696	7.900	2.180	2.042
57.746	7.900	2.180	2.043
57.796	7.900	2.180	2.041
57.845	7.900	2.180	2.040
57.896	7.900	2.180	2.041
57.945	7.900	2.170	2.041
57.995	7.900	2.170	2.042
58.045	7.900	2.170	2.043
58.094	7.900	2.170	2.041
58.144	7.900	2.170	2.042
58.193	7.900	2.170	2.040
58.243	7.900	2.170	2.043
58.293	7.900	2.170	2.042
58.343	7.900	2.170	2.041
58.393	7.900	2.170	2.042
58.444	7.900	2.170	2.043
58.494	7.900	2.170	2.043
58.544	7.900	2.170	2.041
58.594	7.900	2.170	2.043
58.644	7.900	2.170	2.041
58.693	7.900	2.170	2.041
58.743	7.900	2.160	2.043
58.793	7.900	2.160	2.041
58.842	7.900	2.160	2.043
58.892	7.900	2.160	2.041
58.941	7.900	2.160	2.039
58.991	7.900	2.160	2.043
59.040	7.900	2.150	2.040
59.090	7.900	2.150	2.043
59.140	7.900	2.150	2.045
59.189	7.900	2.150	2.043
59.240	7.900	2.140	2.041
59.289	7.900	2.140	2.043
59.339	7.900	2.140	2.043
59.389	7.900	2.140	2.043
59.439	7.900	2.130	2.044
59.489	7.900	2.130	2.042
59.540	7.900	2.130	2.042
59.590	7.900	2.120	2.044
59.639	7.900	2.120	2.042
59.690	7.900	2.120	2.043
59.740	7.900	2.110	2.044
59.789	7.900	2.110	2.042
59.840	7.900	2.110	2.043
59.890	7.900	2.110	2.044
59.939	7.900	2.110	2.037
59.989	7.900	2.110	2.036
60.039	7.900	2.100	2.042
60.089	7.900	2.100	2.035
60.139	7.900	2.100	2.041
60.189	7.900	2.100	2.042
60.239	7.900	2.100	2.041
60.289	7.900	2.100	2.037
60.339	7.900	2.100	2.038
60.389	7.900	2.000	2.039
60.439	7.900	2.000	2.042
60.490	7.900	2.000	2.030
60.539	7.900	2.000	2.039
60.589	7.900	2.000	2.040
60.640	7.900	2.000	2.041
60.690	7.900	2.000	2.039
60.739	7.900	1.990	2.036
60.790	7.900	1.990	2.040
60.840	7.900	1.990	2.033
60.889	7.900	1.990	2.039
60.939	7.900	1.990	2.042
60.988	7.900	1.990	2.029
61.038	7.900	1.990	2.040
61.088	7.900	1.990	2.040
61.137	7.900	1.990	2.036
61.187	7.900	1.990	2.042
61.236	7.900	1.990	2.041
61.286	7.900	1.990	2.042
61.336	7.900	1.990	2.041
61.385	7.900	1.990	2.036
61.435	7.900	1.990	2.042
61.484	7.900	2.090	2.041
61.534	7.900	2.090	2.041
61.584	7.900	2.090	2.041
61.634	7.900	2.090	2.039
61.684	7.900	2.090	2.041
61.735	7.900	2.090	2.041
61.784	7.900	2.090	2.039
61.834	7.900	2.090	2.040
61.885	7.900	2.090	2.040
61.934	7.900	2.090	2.040
61.984	7.900	2.090	2.040
62.034	7.900	2.090	2.041
62.083	7.900	2.090	2.040
62.134	7.900	2.090	2.019
62.184	7.900	2.090	2.042
62.233	7.900	2.090	2.041
62.283	7.900	2.190	2.043
62.333	7.900	2.190	2.041
62.382	7.900	2.190	2.041
62.433	7.900	2.190	2.041
62.483	7.900	2.190	2.040
62.533	7.900	2.190	2.040
62.583	7.900	2.190	2.039
62.633	7.900	2.190	2.041
62.683	7.900	2.190	2.040
62.733	7.900	2.190	2.040
62.783	7.900	2.190	2.043
62.833	7.900	2.190	2.042
62.883	7.900	2.190	2.042
62.933	7.900	2.090	2.041
62.982	7.900	2.090	2.040
63.033	7.900	2.090	2.022
63.083	7.900	2.090	2.037
63.132	7.900	2.090	2.039
63.183	7.900	2.090	2.039
63.233	7.900	2.090	2.043
63.282	7.900	2.090	2.041
63.332	7.900	2.090	2.041
63.382	7.900	2.090	2.041
63.431	7.900	2.090	2.042
63.482	7.900	2.090	2.042
63.532	7.900	2.090	2.040
63.581	7.900	2.090	2.040
63.631	7.900	2.090	2.039
63.680	7.900	2.090	2.041
63.730	7.900	2.090	2.042
63.780	7.900	2.090	2.042
63.830	7.900	2.090	2.037
63.880	7.900	2.090	2.039
63.930	7.900	2.090	2.037
63.979	7.900	2.090	2.039
64.029	7.900	2.090	2.041
64.078	7.900	2.090	2.042
64.128	7.900	2.090	2.038
64.178	7.900	2.090	2.042
64.228	7.900	2.090	2.039
64.278	7.900	2.090	2.037
64.329	7.900	2.090	2.043
64.378	7.900	2.090	2.038
64.427	7.900	2.090	2.038
64.477	7.900	2.090	2.028
64.526	7.900	2.090	2.036
64.576	7.900	2.090	2.041
64.625	7.900	2.090	2.040
64.676	7.900	2.090	2.041
64.726	7.900	2.090	2.042
64.775	7.900	2.090	2.040
64.825	7.900	2.090	2.038
64.875	7.900	2.090	2.041
64.924	7.900	2.090	2.038
64.975	7.900	2.090	2.039
65.025	7.900	2.090	2.039
65.074	7.900	2.090	2.038
65.124	7.900	2.090	2.039
65.173	7.900	2.090	2.040
65.224	7.900	2.090	2.042
65.274	7.900	2.090	2.039
65.325	7.900	2.090	2.040
65.373	7.900	2.090	2.030
65.424	7.900	2.090	2.042
65.474	7.900	2.090	2.041
65.524	7.900	2.090	2.042
65.574	7.900	2.090	2.041
65.623	7.900	2.090	2.042
65.673	7.900	2.090	2.041
65.724	7.900	2.090	2.040
65.774	7.900	2.090	2.037
65.823	7.900	2.090	2.041
65.874	7.900	2.090	2.042
65.924	7.900	2.090	2.040
65.973	7.900	2.090	2.040
66.024	7.900	2.090	2.041
66.074	7.900	2.090	2.041
66.124	7.900	2.090	2.041
66.174	7.900	2.090	2.041
66.225	7.900	2.090	2.041
66.275	7.900	2.090	2.041
66.326	7.900	2.090	2.039
66.376	7.900	2.090	2.040
66.426	7.900	2.090	2.042
66.475	7.900	2.090	2.038
66.526	7.900	2.090	2.040
66.576	7.900	2.090	2.041
66.625	7.900	2.090	2.039
66.676	7.900	2.090	2.040
66.726	7.900	2.090	2.040
66.776	7.900	2.090	2.040
66.825	7.900	2.090	2.037
66.876	7.900	2.020	2.040
66.925	7.900	2.020	2.037
66.975	7.900	2.020	2.041
67.025	7.900	2.020	2.038
67.075	7.900	2.020	2.038
67.125	7.900	2.020	2.041
67.176	7.900	2.020	2.041
67.225	7.900	2.020	2.039
67.275	7.900	2.020	2.041
67.326	7.900	2.020	2.039
67.376	7.900	2.020	2.040
67.425	7.900	2.020	2.038
67.476	7.900	2.020	2.038
67.526	7.900	2.020	2.039
67.576	7.900	2.020	2.039
67.626	7.900	2.020	2.038
67.676	7.900	2.020	2.040
67.726	7.900	2.020	2.040
67.776	7.900	2.020	2.039
67.826	7.900	2.020	2.038
67.876	7.900	2.020	2.037
67.926	7.900	2.020	2.036
67.977	7.900	2.020	2.040
68.026	7.900	2.020	2.038
68.076	7.900	2.020	2.039
68.126	7.900	2.020	2.040
68.175	7.900	2.020	2.040
68.226	7.900	2.020	2.037
68.276	7.900	2.020	2.041
68.325	7.900	2.020	2.039
68.376	7.900	2.020	2.038
68.426	7.900	2.020	2.039
68.475	7.900	2.020	2.038
68.525	7.900	2.020	2.039
68.575	7.900	2.020	2.039
68.624	7.900	2.020	2.039
68.675	7.900	2.020	2.039
68.725	7.900	2.020	2.039
68.775	7.900	2.020	2.040
68.825	7.900	2.020	2.039
68.875	7.900	2.020	2.040
68.924	7.900	2.020	2.039
68.974	7.900	2.020	2.040
69.024	7.900	2.020	2.035
69.073	7.900	2.020	2.039
69.123	7.900	2.020	2.040
69.173	7.900	2.020	2.039
69.223	7.900	2.020	2.040
69.273	7.900	2.020	2.041
69.323	7.900	2.020	2.040
69.373	7.900	2.020	2.039
69.424	7.900	2.020	2.041
69.473	7.900	2.020	2.039
69.523	7.900	2.020	2.040
69.574	7.900	2.020	2.040
69.624	7.900	2.020	2.038
69.673	7.900	2.020	2.045
69.724	7.900	2.020	2.040
69.774	7.900	2.020	2.040
69.823	7.900	2.020	2.040
69.873	7.900	2.020	2.041
69.922	7.900	2.020	2.039
69.972	7.900	2.020	2.040
70.023	7.900	2.020	2.036
70.073	7.900	2.020	2.041
70.123	7.900	2.020	2.039
70.173	7.900	2.020	2.042
70.223	7.900	2.020	2.041
70.273	7.900	2.020	2.040
70.324	7.900	2.020	2.041
70.373	7.900	2.020	2.039
70.422	7.900	2.020	2.036
70.472	7.900	2.020	2.041
70.521	7.900	2.020	2.038
70.572	7.900	2.020	2.039
70.622	7.900	2.020	2.039
70.671	7.900	2.020	2.038
70.722	7.900	2.020	2.038
70.772	7.900	2.020	2.039
70.821	7.900	2.020	2.037
70.871	7.900	2.020	2.036
70.921	7.900	2.020	2.041
70.970	7.900	2.020	2.040
71.020	7.900	2.020	2.040
71.069	7.900	2.020	2.038
71.120	7.900	2.020	2.039
71.170	7.900	2.020	2.039
71.221	7.900	2.020	2.040
71.269	7.900	2.020	2.040
71.319	7.900	2.020	2.041
71.369	7.900	2.020	2.040
71.420	7.900	2.020	2.040
71.470	7.900	2.020	2.041
71.520	7.900	2.020	2.041
71.570	7.900	2.020	2.038
71.621	7.900	2.020	2.037
71.671	7.900	2.020	2.037
71.720	7.900	2.020	2.039
71.770	7.900	2.020	2.041
71.820	7.900	2.020	2.039
71.869	7.900	2.020	2.036
71.920	7.900	2.020	2.039
71.970	7.900	2.020	2.039
72.020	7.900	2.020	2.038
72.070	7.900	2.020	2.039
72.120	7.900	2.020	2.040
72.170	7.900	2.020	2.038
72.220	7.900	2.020	2.019
72.271	7.900	2.020	2.040
72.321	7.900	2.020	2.040
72.371	7.900	2.020	2.038
72.422	7.900	2.020	2.039
72.472	7.900	2.020	2.040
72.521	7.900	2.020	2.037
72.572	7.900	2.020	2.039
72.622	7.900	2.020	2.040
72.671	7.900	2.020	2.041
72.721	7.900	2.020	2.039
72.771	7.900	2.020	2.040
72.820	7.800	2.020	2.039
72.871	7.800	2.020	2.041
72.921	7.800	2.020	2.040
72.970	7.800	2.020	2.040
73.021	7.700	2.020	2.041
73.070	7.700	2.020	2.039
73.120	7.700	2.020	2.038
73.170	7.700	2.020	2.042
73.220	7.600	2.020	2.038
73.270	7.600	2.020	2.038
73.321	7.600	2.020	2.040
73.371	7.600	2.020	2.040
73.420	7.600	2.020	2.038
73.470	7.600	2.020	2.040
73.521	7.600	2.020	2.043
73.570	7.600	2.020	2.038
73.620	7.600	2.020	2.039
73.671	7.600	2.020	2.040
73.720	7.600	2.020	2.038
73.771	7.600	2.020	2.040
73.821	7.600	2.020	2.039
73.870	7.600	2.020	2.038
73.920	7.600	2.020	2.035
73.970	7.600	2.020	2.038
74.020	7.600	2.020	2.039
74.070	7.600	2.020	2.036
74.121	7.600	2.020	2.038
74.170	7.600	2.020	2.036
74.220	7.500	2.020	2.037
74.271	7.500	2.020	2.038
74.321	7.500	2.020	2.037
74.370	7.500	2.020	2.037
74.421	7.500	2.020	2.037
74.471	7.500	2.020	2.034
74.520	7.500	2.020	2.035
74.571	7.500	2.020	2.036
74.621	7.500	2.020	2.030
74.670	7.500	2.020	2.032
74.721	7.500	2.020	2.033
74.771	7.500	2.020	2.018
74.821	7.500	2.020	2.034
74.871	7.500	2.020	2.031
74.921	7.500	2.020	2.023
74.970	7.500	2.020	2.028
75.020	7.500	2.020	2.029
75.070	7.500	2.020	2.022
75.120	7.500	2.020	2.022
75.170	7.500	2.020	2.030
75.220	7.500	2.020	2.024
75.270	7.600	2.020	2.022
75.320	7.600	2.020	2.020
75.371	7.600	2.020	2.027
75.421	7.600	2.020	2.024
75.471	7.600	2.020	2.022
75.521	7.600	2.020	2.031
75.570	7.600	2.020	2.028
75.620	7.600	2.020	2.027
75.671	7.600	2.020	2.021
75.721	7.600	2.020	2.031
75.770	7.600	2.020	2.032
75.820	7.600	2.020	2.031
75.869	7.600	2.020	2.031
75.919	7.600	2.020	2.032
75.969	7.600	2.020	2.032
76.019	7.600	2.020	2.031
76.070	7.600	2.020	2.033
76.119	7.600	2.020	2.031
76.169	7.500	2.020	2.030
76.220	7.500	2.020	2.030
76.269	7.500	2.020	2.033
76.318	7.500	2.020	2.030
76.368	7.500	2.020	2.031
76.417	7.500	2.020	2.029
76.468	7.500	2.020	2.031
76.518	7.500	2.020	2.027
76.568	7.500	2.020	2.031
76.617	7.500	2.020	2.028
76.669	7.500	2.020	2.029
76.718	7.500	2.020	2.030
76.768	7.500	2.020	2.027
76.819	7.500	2.020	2.033
76.869	7.500	2.020	2.031
76.918	7.500	2.020	2.029
76.968	7.500	2.020	2.030
77.018	7.500	2.020	2.029
77.068	7.500	2.020	2.029
77.118	7.500	2.020	2.024
77.169	7.500	2.020	2.030
77.218	7.500	2.020	2.029
77.268	7.500	2.020	2.030
77.319	7.500	2.020	2.031
77.369	7.500	2.020	2.029
77.420	7.500	2.020	2.027
77.470	7.500	2.020	2.028
77.520	7.500	2.020	2.029
77.570	7.500	2.020	2.027
77.620	7.500	2.020	2.028
77.670	7.500	2.020	2.029
77.720	7.500	2.020	2.030
77.771	7.500	2.020	2.027
77.821	7.500	2.020	2.028
77.871	7.500	2.020	2.028
77.921	7.500	2.020	2.028
77.972	7.500	2.020	2.028
78.022	7.500	2.020	2.029
78.071	7.500	2.020	2.028
78.121	7.500	2.020	2.028
78.172	7.500	2.020	2.028
78.221	7.500	2.020	2.029
78.271	7.500	2.020	2.028
78.321	7.500	2.020	2.031
78.370	7.500	2.020	2.026
78.421	7.500	2.020	2.027
78.471	7.500	2.020	2.027
78.520	7.500	2.020	2.027
78.570	7.500	2.020	2.029
78.620	7.500	2.020	2.028
78.670	7.500	2.020	2.026
78.721	7.500	2.020	2.025
78.771	7.500	2.020	2.018
78.821	7.400	2.020	2.027
78.871	7.400	2.020	2.028
78.921	7.400	2.020	2.027
78.971	7.400	2.020	2.027
79.020	7.400	2.020	2.023
79.071	7.400	2.020	2.028
79.120	7.400	2.020	2.025
79.171	7.400	2.020	2.023
79.221	7.400	2.020	2.028
79.270	7.400	2.020	2.026
79.320	7.400	2.020	2.027
79.371	7.400	2.020	2.025
79.421	7.400	2.020	2.025
79.471	7.400	2.020	2.024
79.521	7.400	2.020	2.025
79.571	7.400	2.020	2.021
79.621	7.400	2.020	2.023
79.672	7.400	2.020	2.023
79.722	7.400	2.020	2.023
79.771	7.400	2.020	2.022
79.822	7.400	2.020	2.023
79.872	7.400	2.020	2.023
79.922	7.400	2.020	2.021
79.972	7.400	2.020	2.022
80.022	7.400	2.020	2.021
80.071	7.400	2.020	2.022
80.121	7.400	2.020	2.021
80.172	7.400	2.020	2.023
80.222	7.400	2.020	2.020
80.272	7.400	2.020	2.021
80.322	7.400	2.020	2.021
80.372	7.400	2.020	2.011
80.421	7.400	2.020	2.017
80.472	7.400	2.020	2.023
80.522	7.400	2.020	2.023
80.572	7.400	2.020	2.020
80.622	7.400	2.020	2.022
80.671	7.400	2.020	2.021
80.721	7.400	2.020	2.020
80.773	7.400	2.020	2.021
80.822	7.400	2.020	2.016
80.872	7.400	2.020	2.021
80.922	7.400	2.020	2.020
80.973	7.400	2.020	2.020
81.023	7.400	2.020	2.018
81.072	7.400	2.020	2.021
81.123	7.400	2.020	2.021
81.173	7.400	2.020	2.020
81.223	7.400	2.020	2.020
81.274	7.400	2.020	2.020
81.324	7.400	2.020	2.022
81.373	7.400	2.020	2.017
81.424	7.400	2.020	2.017
81.473	7.400	2.020	2.020
81.523	7.400	2.020	2.019
81.574	7.400	2.020	2.016
81.624	7.400	2.020	2.019
81.673	7.400	2.020	2.017
81.723	7.400	2.020	2.018
81.773	7.400	2.020	2.020
81.823	7.400	2.068	2.019
81.873	7.400	2.069	2.018
81.924	7.400	2.069	2.019
81.974	7.400	2.069	2.018
82.023	7.400	2.069	2.019
82.074	7.400	2.069	2.019
82.123	7.400	2.070	2.018
82.173	7.400	2.070	2.019
82.224	7.400	2.070	2.019
82.274	7.400	2.070	2.019
82.323	7.500	2.070	2.018
82.373	7.500	2.070	2.022
82.422	7.500	2.070	2.018
82.472	7.500	2.070	2.019
82.523	7.500	2.070	2.020
82.572	7.600	2.070	2.018
82.622	7.600	2.070	2.021
82.673	7.600	2.070	2.021
82.722	7.600	2.070	2.021
82.772	7.600	2.070	2.021
82.822	7.600	2.069	2.022
82.871	7.600	2.069	2.020
82.921	7.600	2.069	2.026
82.970	7.700	2.069	2.019
83.020	7.700	2.069	2.020
83.070	7.700	2.069	2.021
83.120	7.800	2.068	2.020
83.170	7.800	2.068	2.021
83.221	7.800	2.068	2.021
83.271	7.800	2.067	2.020
83.321	7.900	2.067	2.020
83.372	7.900	2.067	2.021
83.422	7.900	2.066	2.021
83.471	8.000	2.066	2.020
83.521	8.000	2.066	2.020
83.572	8.000	2.065	2.022
83.621	8.100	2.065	2.020
83.671	8.100	2.064	2.022
83.722	8.100	2.064	2.023
83.771	8.200	2.063	2.019
83.821	8.200	2.063	2.022
83.871	8.200	2.062	2.022
83.921	8.200	2.062	2.021
83.971	8.200	2.061	2.023
84.021	8.200	2.061	2.024
84.071	8.200	2.060	2.024
84.121	8.200	2.059	2.025
84.171	8.200	2.059	2.025
84.220	8.200	2.058	2.024
84.270	8.200	2.058	2.026
84.320	8.200	2.057	2.028
84.370	8.200	2.056	2.024
84.420	8.200	2.056	2.027
84.471	8.200	2.055	2.028
84.520	8.200	2.054	2.027
84.570	8.100	2.053	2.028
84.621	8.100	2.053	2.027
84.671	8.100	2.052	2.027
84.720	8.000	2.051	2.026
84.771	8.000	2.050	2.029
84.820	8.000	2.049	2.026
84.870	7.900	2.049	2.029
84.920	7.900	2.048	2.027
84.969	7.900	2.047	2.028
85.019	7.900	2.046	2.028
85.069	7.900	2.045	2.027
85.118	7.900	2.044	2.027
85.168	7.900	2.044	2.028
85.217	7.900	2.043	2.029
85.267	7.800	2.042	2.028
85.317	7.800	2.041	2.029
85.367	7.800	2.040	2.026
85.417	7.800	2.039	2.027
85.467	7.800	2.038	2.028
85.517	7.800	2.037	2.027
85.567	7.800	2.036	2.027
85.617	7.700	2.035	2.028
85.667	7.700	2.034	2.022
85.717	7.700	2.033	2.029
85.767	7.700	2.032	2.028
85.816	7.600	2.031	2.026
85.867	7.600	2.030	2.027
85.917	7.600	2.029	2.029
85.966	7.600	2.029	2.026
86.017	7.600	2.028	2.027
86.067	7.600	2.027	2.030
86.116	7.600	2.026	2.025
86.166	7.600	2.025	2.014
86.215	7.600	2.024	2.018
86.265	7.500	2.023	2.024
86.316	7.500	2.022	2.026
86.366	7.500	2.021	2.025
86.416	7.500	2.020	2.025
86.466	7.400	2.019	2.022
86.516	7.400	2.018	2.023
86.566	7.400	2.017	2.024
86.616	7.400	2.016	2.020
86.666	7.400	2.015	2.025
86.716	7.400	2.014	2.023
86.766	7.400	2.013	2.020
86.816	7.400	2.012	2.020
86.865	7.400	2.011	2.019
86.916	7.400	2.010	2.015
86.966	7.400	2.009	2.019
87.016	7.400	2.008	2.017
87.066	7.400	2.007	2.011
87.116	7.400	2.006	2.015
87.166	7.400	2.005	2.020
87.216	7.400	2.004	2.015
87.266	7.400	2.003	2.012
87.316	7.400	2.002	2.015
87.366	7.400	2.001	2.018
87.417	7.400	2.000	2.017
87.466	7.400	1.999	2.013
87.516	7.400	1.998	1.997
87.567	7.400	1.997	2.018
87.616	7.400	1.997	2.010
87.666	7.400	1.996	2.012
87.717	7.400	1.995	2.015
87.767	7.400	1.994	2.015
87.816	7.300	1.993	2.009
87.867	7.300	1.992	2.008
87.917	7.300	1.991	2.018
87.966	7.300	1.991	2.019
88.016	7.200	1.990	2.020
88.065	7.200	1.989	2.018
88.115	7.200	1.988	2.018
88.165	7.100	1.987	2.020
88.214	7.100	1.987	2.019
88.264	7.100	1.986	2.017
88.314	7.100	1.985	2.017
88.363	7.000	1.985	2.018
88.414	7.000	1.984	2.016
88.464	7.000	1.983	2.014
88.513	6.900	1.983	2.016
88.564	6.900	1.982	2.014
88.613	6.900	1.981	2.012
88.663	6.900	1.981	2.010
88.714	6.800	1.980	2.010
88.764	6.800	1.979	2.008
88.813	6.800	1.979	2.001
88.863	6.700	1.978	2.005
88.912	6.700	1.978	2.003
88.962	6.700	1.977	2.002
89.013	6.600	1.977	2.003
89.063	6.600	1.976	2.001
89.113	6.600	1.976	1.998
89.163	6.600	1.975	1.997
89.212	6.600	1.975	1.996
89.262	6.600	1.974	1.994
89.312	6.600	1.974	1.995
89.361	6.600	1.974	1.991
89.411	6.600	1.973	1.991
89.460	6.600	1.973	1.990
89.510	6.600	1.973	1.989
89.560	6.600	1.972	1.965
89.610	6.600	1.972	1.987
89.660	6.700	1.972	1.986
89.710	6.700	1.971	1.985
89.760	6.700	1.971	1.985
89.810	6.700	1.971	1.985
89.861	6.700	1.971	1.984
89.911	6.700	1.971	1.983
89.960	6.700	1.971	1.982
90.011	6.700	1.970	1.984
90.060	6.700	1.970	1.982
90.110	6.700	1.970	1.980
90.161	6.700	1.970	1.982
90.211	6.700	1.970	1.982
90.261	6.700	1.970	1.981
90.311	6.700	1.970	1.981
90.361	6.700	1.970	1.982
90.410	6.800	1.970	1.981
90.461	6.800	1.970	1.981
90.511	6.800	1.970	1.982
90.561	6.800	1.970	1.980
90.610	6.800	1.970	1.981
90.660	6.800	1.970	1.980
90.710	6.800	1.971	1.979
90.760	6.800	1.971	1.981
90.810	6.800	1.971	1.981
90.860	6.800	1.971	1.980
90.910	6.800	1.971	1.980
90.960	6.800	1.972	1.981
91.009	6.800	1.972	1.980
91.060	6.900	1.972	1.982
91.110	6.900	1.972	1.981
91.159	6.900	1.973	1.979
91.210	6.900	1.973	1.981
91.260	6.900	1.973	1.982
91.309	6.900	1.974	1.981
91.360	6.900	1.974	1.981
91.410	6.900	1.975	1.980
91.460	7.000	1.975	1.980
91.510	7.000	1.976	1.981
91.561	7.000	1.976	1.981
91.610	7.000	1.977	1.981
91.660	7.000	1.977	1.980
91.711	7.100	1.978	1.981
91.760	7.100	1.978	1.981
91.810	7.100	1.979	1.980
91.861	7.100	1.979	1.981
91.910	7.200	1.980	1.982
91.960	7.200	1.980	1.978
92.011	7.200	1.981	1.982
92.060	7.300	1.982	1.976
92.110	7.300	1.982	1.978
92.161	7.300	1.983	1.981
92.211	7.400	1.984	1.982
92.260	7.400	1.984	1.978
92.311	7.400	1.985	1.980
92.361	7.500	1.986	1.982
92.410	7.500	1.986	1.980
92.460	7.600	1.987	1.980
92.510	7.600	1.988	1.982
92.560	7.600	1.989	1.981
92.610	7.700	1.990	1.982
92.660	7.700	1.990	1.982
92.710	7.800	1.991	1.982
92.760	7.800	1.992	1.982
92.811	7.800	1.993	1.984
92.860	7.900	1.994	1.980
92.910	7.900	1.995	1.980
92.961	8.000	1.995	1.986
93.010	8.000	1.996	1.984
93.060	8.000	1.997	1.985
93.111	8.100	1.998	1.987
93.160	8.100	1.999	1.985
93.210	8.200	2.000	1.988
93.260	8.200	2.001	1.990
93.309	8.200	2.002	1.986
93.360	8.300	2.003	1.989
93.410	8.300	2.004	1.990
93.460	8.300	2.005	1.992
93.510	8.300	2.005	1.990
93.561	8.300	2.006	1.993
93.610	8.300	2.007	1.993
93.660	8.300	2.008	1.993
93.711	8.300	2.009	1.996
93.761	8.300	2.010	2.001
93.810	8.300	2.011	1.996
93.861	8.300	2.012	2.000
93.911	8.300	2.013	2.001
93.960	8.200	2.014	2.003
94.011	8.200	2.015	2.001
94.061	8.100	2.016	2.006
94.110	8.100	2.017	2.002
94.161	8.100	2.018	2.005
94.211	8.000	2.019	2.003
94.261	8.000	2.020	2.005
94.311	8.000	2.021	2.007
94.361	7.900	2.022	2.006
94.411	7.900	2.023	2.004
94.461	7.800	2.024	2.005
94.511	7.800	2.025	2.006
94.560	7.800	2.026	2.004
94.610	7.800	2.027	2.004
94.660	7.800	2.028	2.006
94.709	7.800	2.029	2.005
94.760	7.800	2.030	2.005
94.809	7.800	2.031	2.006
94.858	7.800	2.032	2.006
94.909	7.800	2.033	2.007
94.958	7.900	2.034	2.004
95.008	7.900	2.035	2.005
95.059	7.900	2.036	2.006
95.109	8.000	2.037	2.007
95.159	8.000	2.038	2.006
95.209	8.000	2.039	2.006
95.259	8.100	2.040	2.008
95.309	8.100	2.041	2.006
95.359	8.100	2.041	2.006
95.410	8.200	2.042	2.007
95.460	8.200	2.043	2.004
95.510	8.200	2.044	2.003
95.561	8.300	2.045	2.007
95.610	8.300	2.046	2.004
95.660	8.300	2.047	2.005
95.711	8.400	2.048	2.005
95.761	8.400	2.048	2.007
95.810	8.400	2.049	2.005
95.861	8.400	2.050	2.004
95.911	8.500	2.051	2.006
95.961	8.500	2.052	2.006
96.011	8.500	2.052	2.004
96.061	8.600	2.053	2.007
96.111	8.600	2.054	2.005
96.161	8.600	2.055	2.007
96.212	8.700	2.055	2.009
96.261	8.700	2.056	2.007
96.311	8.700	2.057	2.007
96.362	8.700	2.057	2.009
96.411	8.700	2.058	2.010
96.461	8.700	2.059	2.010
96.512	8.700	2.059	2.010
96.561	8.700	2.060	2.011
96.610	8.700	2.061	2.010
96.661	8.700	2.061	2.015
96.711	8.700	2.062	2.013
96.760	8.700	2.062	2.016
96.811	8.700	2.063	2.016
96.861	8.700	2.063	2.016
96.911	8.700	2.064	2.018
96.961	8.600	2.064	2.018
97.011	8.600	2.065	2.018
97.061	8.600	2.065	2.019
97.111	8.600	2.066	2.019
97.160	8.600	2.066	2.018
97.210	8.600	2.066	2.019
97.261	8.600	2.067	2.021
97.311	8.600	2.067	2.018
97.360	8.600	2.067	2.017
97.411	8.600	2.068	2.019
97.461	8.600	2.068	2.016
97.510	8.600	2.068	2.017
97.561	8.700	2.069	2.018
97.611	8.700	2.069	2.014
97.660	8.700	2.069	2.013
97.711	8.800	2.069	2.018
97.761	8.800	2.069	2.009
97.810	8.800	2.069	2.014
97.861	8.900	2.070	2.018
97.911	8.900	2.070	2.021
97.961	8.900	2.070	2.020
98.011	8.900	2.070	2.020
98.062	9.000	2.070	2.014
98.111	9.000	2.070	2.018
98.161	9.000	2.070	2.015
98.211	9.100	2.070	2.018
98.260	9.100	2.070	2.013
98.311	9.100	2.070	2.012
98.361	9.100	2.070	2.023
98.410	9.200	2.070	2.022
98.460	9.200	2.070	2.022
98.511	9.200	2.070	2.029
98.560	9.200	2.069	2.029
98.610	9.200	2.069	2.028
98.661	9.200	2.069	2.035
98.710	9.200	2.069	2.035
98.760	9.200	2.069	2.034
98.811	9.200	2.068	2.040
98.860	9.200	2.068	2.041
98.910	9.200	2.068	2.042
98.960	9.200	2.068	2.044
99.010	9.200	2.067	2.044
99.060	9.200	2.067	2.044
99.111	9.200	2.067	2.046
99.161	9.200	2.066	2.046
99.210	9.200	2.066	2.045
99.261	9.200	2.065	2.048
99.311	9.200	2.065	2.047
99.360	9.100	2.064	2.045
99.411	9.100	2.064	2.047
99.461	9.100	2.064	2.047
99.511	9.000	2.063	2.045
99.561	9.000	2.063	2.046
99.611	9.000	2.062	2.048
99.660	8.900	2.061	2.047
99.710	8.900	2.061	2.049
99.759	8.900	2.060	2.048
99.809	8.900	2.060	2.052
99.860	8.900	2.059	2.050
99.910	8.800	2.058	2.048
99.960	8.800	2.058	2.049
100.010	8.800	2.057	2.050
100.060	8.700	2.056	2.050
100.110	8.700	2.056	2.048
100.161	8.700	2.055	2.050
100.211	8.700	2.054	2.052
100.260	8.600	2.054	2.049
100.310	8.600	2.053	2.050
100.360	8.600	2.052	2.050
100.409	8.500	2.051	2.050
100.460	8.500	2.051	2.052
100.509	8.500	2.050	2.051
100.559	8.500	2.049	2.048
100.609	8.400	2.048	2.050
100.659	8.400	2.047	2.051
100.709	8.400	2.046	2.050
100.759	8.400	2.046	2.051
100.809	8.300	2.045	2.049
100.859	8.300	2.044	2.051
100.909	8.300	2.043	2.050
100.959	8.300	2.042	2.046
101.009	8.300	2.041	2.048
101.059	8.300	2.040	2.049
101.110	8.200	2.039	2.049
101.160	8.200	2.038	2.047
101.210	8.200	2.037	2.049
101.260	8.100	2.037	2.046
101.310	8.100	2.036	2.050
101.360	8.100	2.035	2.047
101.410	8.100	2.034	2.050
101.460	8.000	2.033	2.052
101.510	8.000	2.032	2.048
101.561	8.000	2.031	2.049
101.612	7.900	2.030	2.049
101.660	7.900	2.029	2.048
101.710	7.900	2.028	2.049
101.760	7.800	2.027	2.048
101.810	7.800	2.026	2.050
101.860	7.800	2.025	2.049
101.911	7.700	2.024	2.048
101.960	7.700	2.023	2.047
102.010	7.700	2.022	2.046
102.061	7.700	2.021	2.048
102.111	7.600	2.020	2.046
102.160	7.600	2.019	2.039
102.211	7.600	2.018	2.047
102.261	7.500	2.017	2.046
102.311	7.500	2.016	2.045
102.362	7.500	2.015	2.046
102.412	7.500	2.014	2.043
102.462	7.400	2.013	2.041
102.512	7.400	2.012	2.043
102.562	7.400	2.011	2.039
102.611	7.400	2.010	2.040
102.661	7.300	2.009	2.038
102.711	7.300	2.008	2.036
102.761	7.300	2.007	2.034
102.811	7.300	2.006	2.033
102.862	7.200	2.005	2.033
102.911	7.200	2.004	2.031
102.961	7.200	2.003	2.030
103.012	7.200	2.002	2.031
103.062	7.100	2.001	2.029
103.112	7.100	2.000	2.027
103.163	7.100	1.999	2.032
103.213	7.100	1.998	2.026
103.263	7.100	1.998	2.024
103.313	7.000	1.997	2.023
103.363	7.000	1.996	2.022
103.413	7.000	1.995	2.023
103.463	7.000	1.994	2.023
103.514	7.000	1.993	2.023
103.563	7.000	1.992	2.020
103.613	7.000	1.992	2.019
103.664	7.000	1.991	2.019
103.714	7.000	1.990	2.019
103.763	7.000	1.989	2.018
103.814	7.000	1.988	2.018
103.864	7.000	1.988	2.018
103.914	7.000	1.987	2.016
103.964	7.000	1.986	2.018
104.015	7.000	1.985	2.018
104.066	7.000	1.985	2.015
104.116	7.000	1.984	2.011
104.166	7.000	1.983	2.016
104.216	7.000	1.983	2.016
104.266	7.000	1.982	2.014
104.316	7.000	1.981	2.012
104.367	7.000	1.981	2.016
104.416	7.000	1.980	2.015
104.465	7.000	1.979	2.015
104.515	7.000	1.979	2.016
104.564	7.000	1.978	2.015
104.615	7.000	1.978	2.014
104.664	7.000	1.977	2.014
104.713	7.000	1.977	2.014
104.764	7.000	1.976	2.013
104.814	7.000	1.976	2.012
104.863	7.000	1.975	2.012
104.914	6.900	1.975	2.014
104.963	6.900	1.974	2.012
105.013	6.800	1.974	2.012
105.062	6.800	1.974	2.011
105.112	6.800	1.973	2.011
105.163	6.800	1.973	2.011
105.212	6.700	1.973	2.010
105.261	6.700	1.972	2.010
105.311	6.700	1.972	2.006
105.360	6.600	1.972	2.007
105.410	6.600	1.972	2.009
105.460	6.600	1.971	2.006
105.510	6.600	1.971	2.005
105.560	6.500	1.971	2.004
105.611	6.500	1.971	2.003
105.660	6.500	1.971	1.997
105.710	6.400	1.970	1.999
105.761	6.400	1.970	1.999
105.811	6.400	1.970	1.997
105.860	6.400	1.970	1.995
105.911	6.400	1.970	1.995
105.960	6.400	1.970	1.990
106.010	6.400	1.970	1.991
106.061	6.400	1.970	1.989
106.110	6.400	1.970	1.984
106.160	6.400	1.970	1.985
106.211	6.400	1.970	1.984
106.261	6.400	1.970	1.983
106.310	6.400	1.970	1.982
106.361	6.400	1.970	1.980
106.410	6.400	1.971	1.980
106.460	6.500	1.971	1.979
106.511	6.500	1.971	1.979
106.560	6.500	1.971	1.979
106.610	6.600	1.971	1.976
106.660	6.600	1.972	1.978
106.710	6.600	1.972	1.976
106.759	6.600	1.972	1.977
106.810	6.700	1.972	1.977
106.860	6.700	1.973	1.977
106.909	6.700	1.973	1.977
106.960	6.800	1.973	1.978
107.009	6.800	1.974	1.977
107.059	6.800	1.974	1.977
107.110	6.900	1.975	1.977
107.160	6.900	1.975	1.976
107.209	6.900	1.975	1.977
107.259	7.000	1.976	1.977
107.309	7.000	1.976	1.978
107.359	7.000	1.977	1.978
107.410	7.100	1.977	1.978
107.459	7.100	1.978	1.978
107.509	7.200	1.979	1.977
107.559	7.200	1.979	1.978
107.608	7.200	1.980	1.979
107.658	7.300	1.980	1.978
107.708	7.300	1.981	1.977
107.757	7.300	1.981	1.977
107.808	7.400	1.982	1.978
107.858	7.400	1.983	1.979
107.907	7.500	1.983	1.975
107.957	7.500	1.984	1.978
108.006	7.500	1.985	1.974
108.056	7.600	1.986	1.979
108.107	7.600	1.986	1.980
108.157	7.600	1.987	1.981
108.207	7.700	1.988	1.979
108.258	7.700	1.989	1.981
108.308	7.800	1.989	1.982
108.357	7.800	1.990	1.982
108.407	7.800	1.991	1.982
108.457	7.900	1.992	1.985
108.507	7.900	1.993	1.982
108.557	7.900	1.993	1.980
108.607	8.000	1.994	1.984
108.657	8.000	1.995	1.983
108.707	8.000	1.996	1.975
108.758	8.100	1.997	1.985
108.807	8.100	1.998	1.983
108.857	8.100	1.999	1.986
108.908	8.200	2.000	1.988
108.957	8.200	2.001	1.985
109.007	8.200	2.001	1.987
109.058	8.200	2.002	1.989
109.108	8.300	2.003	1.990
109.157	8.300	2.004	1.988
109.207	8.300	2.005	1.991
109.257	8.400	2.006	1.992
109.307	8.400	2.007	1.993
109.357	8.400	2.008	1.994
109.407	8.500	2.009	1.994
109.457	8.500	2.010	1.994
109.508	8.500	2.011	1.999
109.558	8.600	2.012	2.002
109.607	8.600	2.013	2.001
109.658	8.600	2.014	2.006
109.708	8.700	2.015	2.010
109.757	8.700	2.016	2.008
109.808	8.700	2.017	2.012
109.858	8.800	2.018	2.018
109.907	8.800	2.019	2.017
109.958	8.800	2.020	2.022
110.008	8.800	2.021	2.027
110.058	8.800	2.022	2.029
110.108	8.800	2.023	2.030
110.158	8.800	2.024	2.035
110.207	8.800	2.025	2.038
110.257	8.800	2.026	2.038
110.307	8.700	2.027	2.043
110.357	8.700	2.028	2.045
110.407	8.600	2.029	2.047
110.457	8.600	2.030	2.049
110.507	8.600	2.031	2.050
110.557	8.500	2.032	2.054
110.608	8.500	2.033	2.057
110.658	8.500	2.034	2.054
110.707	8.400	2.035	2.043
110.757	8.400	2.036	2.052
110.806	8.400	2.037	2.046
110.857	8.300	2.038	2.038
110.907	8.300	2.039	2.053
110.956	8.300	2.039	2.052
111.007	8.200	2.040	2.042
111.057	8.200	2.041	2.045
111.107	8.200	2.042	2.046
111.157	8.100	2.043	2.051
111.207	8.100	2.044	2.055
111.256	8.100	2.045	2.054
111.307	8.000	2.046	2.052
111.357	8.000	2.047	2.048
111.407	8.000	2.047	2.044
111.457	8.000	2.048	2.054
111.507	8.000	2.049	2.051
111.557	8.000	2.050	2.042
111.607	8.000	2.051	2.043
111.658	8.000	2.051	2.053
111.707	7.900	2.052	2.051
111.757	7.900	2.053	2.048
111.808	7.900	2.054	2.042
111.858	7.900	2.054	2.049
111.908	7.900	2.055	2.050
111.958	7.900	2.056	2.046
112.008	7.900	2.057	2.052
112.057	7.900	2.057	2.050
112.107	7.900	2.058	2.049
112.158	7.900	2.059	2.045
112.208	8.000	2.059	2.037
112.258	8.000	2.060	2.044
112.309	8.000	2.060	2.050
112.359	8.100	2.061	2.041
112.408	8.100	2.062	2.041
112.459	8.100	2.062	2.049
112.509	8.100	2.063	2.045
112.558	8.100	2.063	2.038
112.609	8.200	2.064	2.047
112.659	8.200	2.064	2.050
112.708	8.200	2.065	2.052
112.758	8.200	2.065	2.051
112.808	8.300	2.065	2.052
112.858	8.300	2.066	2.049
112.908	8.300	2.066	2.051
112.958	8.300	2.067	2.052
113.008	8.400	2.067	2.050
113.058	8.400	2.067	2.046
113.109	8.400	2.068	2.043
113.159	8.400	2.068	2.039
113.209	8.400	2.068	2.047
113.260	8.400	2.068	2.050
113.310	8.400	2.069	2.042
113.359	8.400	2.069	2.046
113.410	8.400	2.069	2.051
113.460	8.400	2.069	2.046
113.509	8.400	2.069	2.049
113.559	8.500	2.070	2.053
113.609	8.500	2.070	2.051
113.659	8.500	2.070	2.053
113.709	8.500	2.070	2.054
113.759	8.500	2.070	2.053
113.809	8.500	2.070	2.050
113.859	8.500	2.070	2.054
113.909	8.500	2.070	2.053
113.959	8.500	2.070	2.051
114.009	8.500	2.070	2.053
114.059	8.500	2.070	2.054
114.108	8.500	2.070	2.053
114.159	8.500	2.070	2.051
114.209	8.500	2.070	2.055
114.259	8.500	2.069	2.053
114.309	8.500	2.069	2.054
114.360	8.500	2.069	2.052
114.410	8.500	2.069	2.049
114.460	8.500	2.069	2.044
114.510	8.500	2.068	2.054
114.560	8.500	2.068	2.053
114.610	8.500	2.068	2.049
114.660	8.500	2.068	2.054
114.710	8.500	2.067	2.053
114.760	8.500	2.067	2.052
114.810	8.500	2.067	2.054
114.860	8.500	2.066	2.055
114.910	8.500	2.066	2.054
114.960	8.500	2.065	2.056
115.010	8.500	2.065	2.056
115.059	8.500	2.065	2.053
115.110	8.500	2.064	2.055
115.160	8.500	2.064	2.056
115.209	8.500	2.063	2.056
115.260	8.500	2.063	2.056
115.310	8.500	2.062	2.057
115.359	8.500	2.062	2.053
115.409	8.500	2.061	2.057
115.459	8.500	2.060	2.061
115.509	8.500	2.060	2.058
115.559	8.500	2.059	2.058
115.609	8.400	2.059	2.059
115.659	8.400	2.058	2.056
115.708	8.400	2.057	2.045
115.758	8.300	2.057	2.059
115.808	8.300	2.056	2.060
115.859	8.300	2.055	2.060
115.908	8.200	2.054	2.060
115.958	8.200	2.054	2.059
116.009	8.100	2.053	2.063
116.058	8.100	2.052	2.061
116.108	8.100	2.051	2.048
116.159	8.000	2.051	2.061
116.209	8.000	2.050	2.061
116.259	8.000	2.049	2.060
116.309	7.900	2.048	2.060
116.359	7.900	2.047	2.059
116.409	7.900	2.047	2.058
116.459	7.800	2.046	2.057
116.509	7.800	2.045	2.059
116.559	7.800	2.044	2.059
116.609	7.700	2.043	2.058
116.659	7.700	2.042	2.059
116.709	7.700	2.041	2.054
116.759	7.600	2.040	2.056
116.810	7.600	2.039	2.059
116.859	7.600	2.039	2.058
116.909	7.500	2.038	2.057
116.960	7.500	2.037	2.057
117.009	7.500	2.036	2.056
117.059	7.400	2.035	2.054
117.110	7.400	2.034	2.051
117.160	7.300	2.033	2.052
117.211	7.300	2.032	2.053
117.260	7.300	2.031	2.052
117.310	7.200	2.030	2.050
117.360	7.200	2.029	2.049
117.410	7.100	2.028	2.046
117.461	7.100	2.027	2.045
117.510	7.100	2.026	2.043
117.560	7.000	2.025	2.039
117.610	7.000	2.024	2.039
117.660	7.000	2.023	2.036
117.710	6.900	2.022	2.031
117.761	6.900	2.021	2.031
117.811	6.800	2.020	2.030
117.860	6.800	2.019	2.023
117.911	6.800	2.018	2.018
117.961	6.700	2.017	2.023
118.010	6.700	2.016	2.018
118.062	6.700	2.015	2.018
118.111	6.700	2.014	2.018
118.161	6.700	2.013	2.014
118.210	6.700	2.012	2.014
118.261	6.800	2.011	2.013
118.311	6.800	2.010	2.009
118.360	6.800	2.009	2.009
118.411	6.900	2.008	2.009
118.461	6.900	2.007	2.005
118.511	7.000	2.006	2.007
118.561	7.000	2.005	2.007
118.611	7.000	2.004	2.005
118.660	7.100	2.003	1.988
118.711	7.100	2.002	2.006
118.761	7.100	2.001	2.006
118.811	7.200	2.001	2.005
118.862	7.200	2.000	2.006
118.913	7.200	1.999	2.005
118.961	7.200	1.998	2.006
119.011	7.200	1.997	2.006
119.061	7.100	1.996	2.006
119.111	7.100	1.995	2.007
119.161	7.100	1.994	2.006
119.211	7.000	1.993	2.006
119.261	7.000	1.993	2.007
119.311	7.000	1.992	2.007
119.362	7.000	1.991	2.006
119.411	7.100	1.990	2.002
119.461	7.100	1.989	2.005
119.512	7.100	1.989	2.007
119.562	7.100	1.988	2.007
119.612	7.000	1.987	2.008
119.663	7.000	1.986	2.006
119.713	7.000	1.986	2.006
119.763	6.900	1.985	2.005
119.813	6.900	1.984	2.004
119.864	6.800	1.983	2.005
119.913	6.800	1.983	2.006
119.963	6.800	1.982	2.000
120.014	6.700	1.981	2.006
120.064	6.700	1.981	2.007
120.113	6.700	1.980	2.005
120.164	6.600	1.980	2.007
120.215	6.600	1.979	2.006
120.263	6.600	1.978	2.005
120.314	6.600	1.978	2.005
120.364	6.500	1.977	2.002
120.413	6.500	1.977	2.005
120.464	6.500	1.976	2.009
120.514	6.400	1.976	2.004
120.563	6.400	1.975	2.003
120.613	6.400	1.975	2.003
120.663	6.400	1.975	2.002
120.713	6.300	1.974	2.000
120.763	6.300	1.974	2.001
120.813	6.300	1.973	1.998
120.863	6.300	1.973	1.999
120.914	6.200	1.973	1.996
120.964	6.200	1.972	1.995
121.014	6.200	1.972	1.992
121.064	6.200	1.972	1.991
121.115	6.200	1.972	1.991
121.165	6.200	1.971	1.988
121.214	6.200	1.971	1.985
121.265	6.200	1.971	1.985
121.315	6.200	1.971	1.986
121.364	6.200	1.971	1.983
121.414	6.200	1.970	1.981
121.464	6.200	1.970	1.979
121.513	6.200	1.970	1.980
121.564	6.300	1.970	1.980
121.614	6.300	1.970	1.978
121.664	6.300	1.970	1.977
121.714	6.300	1.970	1.977
121.764	6.300	1.970	1.977
121.814	6.300	1.970	1.976
121.865	6.300	1.970	1.976
121.915	6.400	1.970	1.977
121.964	6.400	1.970	1.975
122.014	6.400	1.970	1.973
122.065	6.400	1.970	1.976
122.116	6.400	1.971	1.973
122.164	6.400	1.971	1.976
122.214	6.400	1.971	1.974
122.264	6.400	1.971	1.976
122.314	6.400	1.971	1.976
122.364	6.400	1.972	1.975
122.414	6.400	1.972	1.973
122.464	6.400	1.972	1.976
122.514	6.400	1.972	1.976
122.563	6.400	1.973	1.975
122.613	6.400	1.973	1.975
122.663	6.400	1.973	1.975
122.713	6.400	1.974	1.974
122.763	6.500	1.974	1.975
122.813	6.500	1.975	1.975
122.863	6.500	1.975	1.974
122.913	6.600	1.975	1.976
122.964	6.600	1.976	1.975
123.014	6.600	1.976	1.976
123.063	6.700	1.977	1.976
123.114	6.700	1.977	1.975
123.164	6.800	1.978	1.973
123.213	6.800	1.978	1.968
123.264	6.800	1.979	1.965
123.314	6.900	1.980	1.975
123.364	6.900	1.980	1.973
123.414	6.900	1.981	1.975
123.464	7.000	1.981	1.975
123.514	7.000	1.982	1.975
123.564	7.100	1.983	1.975
123.614	7.100	1.983	1.974
123.664	7.100	1.984	1.976
123.714	7.200	1.985	1.976
123.765	7.200	1.986	1.976
123.815	7.200	1.986	1.974
123.864	7.200	1.987	1.975
123.915	7.200	1.988	1.978
123.964	7.300	1.989	1.976
124.014	7.300	1.989	1.973
124.065	7.300	1.990	1.978
124.115	7.400	1.991	1.978
124.165	7.400	1.992	1.980
124.215	7.500	1.993	1.977
124.265	7.500	1.993	1.979
124.315	7.500	1.994	1.980
124.365	7.600	1.995	1.981
124.415	7.600	1.996	1.981
124.465	7.600	1.997	1.982
124.515	7.700	1.998	1.981
124.566	7.700	1.999	1.982
124.615	7.700	2.000	1.981
124.665	7.700	2.001	1.983
124.716	7.800	2.001	1.984
124.766	7.800	2.002	1.984
124.816	7.800	2.003	1.985
124.866	7.900	2.004	1.986
124.916	7.900	2.005	1.987
124.966	7.900	2.006	1.987
125.016	8.000	2.007	1.987
125.066	8.000	2.008	1.989
125.116	8.000	2.009	1.989
125.166	8.100	2.010	1.990
125.216	8.100	2.011	1.993
125.266	8.100	2.012	1.992
125.316	8.200	2.013	1.996
125.366	8.200	2.014	1.997
125.416	8.200	2.015	1.998
125.466	8.200	2.016	2.000
125.517	8.300	2.017	2.005
125.567	8.300	2.018	2.003
125.616	8.300	2.019	2.007
125.667	8.400	2.020	2.010
125.717	8.400	2.021	2.013
125.766	8.400	2.022	2.013
125.817	8.500	2.023	2.018
125.867	8.500	2.024	2.019
125.917	8.500	2.025	2.024
125.967	8.500	2.026	2.027
126.017	8.500	2.027	2.033
126.067	8.400	2.028	2.033
126.117	8.400	2.029	2.033
126.168	8.400	2.030	2.035
126.217	8.300	2.031	2.037
126.267	8.300	2.032	2.040
126.318	8.300	2.033	2.042
126.367	8.200	2.034	2.045
126.417	8.200	2.035	2.043
126.468	8.100	2.036	2.044
126.517	8.100	2.037	2.044
126.567	8.100	2.038	2.047
126.618	8.000	2.039	2.045
126.668	8.000	2.040	2.044
126.718	8.000	2.040	2.039
126.768	7.900	2.041	2.044
126.818	7.900	2.042	2.045
126.868	7.800	2.043	2.043
126.918	7.800	2.044	2.044
126.968	7.800	2.045	2.043
127.018	7.800	2.046	2.044
127.068	7.800	2.047	2.045
127.119	7.900	2.047	2.040
127.168	7.900	2.048	2.044
127.218	7.900	2.049	2.043
127.269	7.900	2.050	2.043
127.319	8.000	2.051	2.043
127.369	8.000	2.052	2.038
127.419	8.000	2.052	2.043
127.469	8.100	2.053	2.044
127.519	8.100	2.054	2.041
127.569	8.100	2.055	2.044
127.619	8.100	2.055	2.045
127.669	8.200	2.056	2.043
127.719	8.200	2.057	2.044
127.770	8.200	2.057	2.043
127.820	8.200	2.058	2.044
127.870	8.300	2.059	2.043
127.921	8.300	2.059	2.042
127.971	8.300	2.060	2.042
128.021	8.400	2.060	2.041
128.071	8.400	2.061	2.042
128.121	8.400	2.062	2.044
128.171	8.400	2.062	2.041
128.221	8.500	2.063	2.042
128.271	8.500	2.063	2.044
128.321	8.500	2.064	2.043
128.371	8.500	2.064	2.039
128.421	8.600	2.065	2.045
128.471	8.600	2.065	2.043
128.521	8.600	2.065	2.045
128.571	8.600	2.066	2.044
128.621	8.600	2.066	2.045
128.670	8.600	2.067	2.047
128.720	8.600	2.067	2.048
128.769	8.600	2.067	2.045
128.820	8.600	2.068	2.048
128.869	8.700	2.068	2.048
128.918	8.700	2.068	2.050
128.969	8.700	2.068	2.050
129.019	8.700	2.069	2.048
129.068	8.700	2.069	2.050
129.119	8.700	2.069	2.051
129.168	8.700	2.069	2.050
129.218	8.700	2.069	2.053
129.267	8.700	2.070	2.052
129.316	8.700	2.070	2.055
129.367	8.600	2.070	2.053
129.417	8.600	2.070	2.057
129.466	8.600	2.070	2.055
129.517	8.600	2.070	2.059
129.567	8.600	2.070	2.060
129.616	8.600	2.070	2.061
129.666	8.600	2.070	2.063
129.716	8.600	2.070	2.062
129.765	8.600	2.070	2.065
129.815	8.600	2.070	2.065
129.864	8.600	2.070	2.066
129.914	8.600	2.070	2.067
129.964	8.600	2.069	2.066
130.014	8.600	2.069	2.067
130.064	8.600	2.069	2.069
130.114	8.600	2.069	2.067
130.163	8.500	2.069	2.069
130.214	8.500	2.068	2.070
130.263	8.500	2.068	2.070
130.313	8.400	2.068	2.071
130.364	8.400	2.068	2.072
130.413	8.400	2.067	2.072
130.463	8.300	2.067	2.072
130.514	8.300	2.067	2.072
130.564	8.300	2.066	2.071
130.613	8.300	2.066	2.072
130.664	8.200	2.065	2.074
130.714	8.200	2.065	2.072
130.764	8.200	2.065	2.071
130.814	8.200	2.064	2.072
130.864	8.100	2.064	2.071
130.913	8.100	2.063	2.072
130.963	8.100	2.063	2.074
131.013	8.100	2.062	2.072
131.063	8.000	2.062	2.072
131.114	8.000	2.061	2.072
131.164	8.000	2.060	2.069
131.213	7.900	2.060	2.070
131.264	7.900	2.059	2.074
131.313	7.900	2.059	2.071
131.362	7.900	2.058	2.071
131.412	7.800	2.057	2.065
131.461	7.800	2.057	2.064
131.512	7.800	2.056	2.072
131.562	7.700	2.055	2.063
131.611	7.700	2.055	2.065
131.662	7.700	2.054	2.064
131.712	7.600	2.053	2.062
131.761	7.600	2.052	2.058
131.812	7.600	2.052	2.060
131.862	7.600	2.051	2.063
131.911	7.500	2.050	2.059
131.961	7.500	2.049	2.055
132.012	7.500	2.048	2.053
132.062	7.400	2.047	2.060
132.112	7.400	2.047	2.063
132.163	7.400	2.046	2.062
132.213	7.300	2.045	2.054
132.262	7.300	2.044	2.057
132.313	7.300	2.043	2.058
132.363	7.300	2.042	2.053
132.412	7.300	2.041	2.051
132.463	7.300	2.040	2.051
132.513	7.200	2.040	2.044
132.562	7.200	2.039	2.050
132.612	7.200	2.038	2.045
132.662	7.200	2.037	2.038
132.712	7.100	2.036	2.045
132.762	7.100	2.035	2.042
132.812	7.100	2.034	2.040
132.861	7.100	2.033	2.037
132.911	7.000	2.032	2.034
132.960	7.000	2.031	2.035
133.010	7.000	2.030	2.035
133.060	7.000	2.029	2.034
133.109	7.000	2.028	2.032
133.159	7.000	2.027	2.031
133.209	7.000	2.026	2.031
133.259	7.000	2.025	2.029
133.310	7.000	2.024	2.029
133.359	7.000	2.023	2.027
133.409	7.000	2.022	2.026
133.461	7.000	2.021	2.027
133.510	7.000	2.020	2.023
133.559	7.000	2.019	2.024
133.610	7.000	2.018	2.024
133.660	7.000	2.017	2.024
133.709	7.000	2.016	2.021
133.760	7.000	2.015	2.023
133.810	7.000	2.014	2.023
133.860	7.000	2.013	2.021
133.910	7.000	2.012	2.020
133.960	7.000	2.011	2.020
134.010	7.000	2.010	2.019
134.060	7.000	2.009	2.020
134.110	7.000	2.008	2.020
134.160	7.000	2.007	2.019
134.210	7.000	2.006	2.017
134.260	7.000	2.005	2.019
134.310	7.000	2.004	2.019
134.360	7.000	2.003	2.018
134.411	7.000	2.003	2.018
134.461	7.000	2.002	2.017
